,ECG_Signal,PPG_Signal,Label,time_begin,time_end
0,"[  12    4    2    2    7   21   33   28  -14  -48  -21    7    0    9
   21   16    9   19   24   14   21   36   26   28   53   55   50   55
   60   69   86   96   96   89   77   69   60   45   28   36   79  113
  103   91  103  113  103  101  120  159  263  509  764  690  190 -214
 -132   41   26   31   74   65   62   89   98   91   91   91   89  101
  103  103  113  110  110  132  147  156  176  207  224  226  238  255
  248  236  226  185   96   12  -28  -31  -21  -43  -50  -33  -31  -24
    9   33   36   26   21   21    9   24   57   69   82   98   96   91
   89   91   96]","[21 20 20 19 18 18 18 18 20 22 25 28 33 37 43 48 53 58 62 66 70 72 74 75
 75 75 74 73 72 70 68 67 65 63 61 60 58 57 55 54 53 52 51 50 50 49 48 48
 47 47 46 46 46 45 45 45 44 44 43 42 41 40 39 37 36 34 31 29 26 24 21 18
 16 13 11 10 10 10 12 15 19 24 31 38 47 55 64 72 80 87 93 95 95 95 95 95]",3,2022-01-20 10:19:10,2022-01-20 10:19:12
0,"[ 183  185  205  238  258  279  308  325  313  265  200  144   84   41
   19  -12  -28  -12    9   33   67   55   -4  -19   16   36   48   72
   57   38   48   33   19   45   55   50   67   53   -7   -9   53   67
   38   41   50   36   21   33   62   82   77   55   45   60   69   57
   53   74   86   67   38   31   48   69   69   48   45   53   55   74
  144  345  644  764  422 -147 -284  -55    9  -38    7   48   24    9
   26   33   31   41   48   41   31   41   60   77  106  144  152  147
  168  205  231  248  253  267  289  277  246  219  164   45  -50  -60
  -33  -31  -33]","[52 50 47 45 42 39 37 35 33 31 30 28 27 26 25 24 23 22 21 21 20 20 20 21
 22 24 28 31 36 41 47 53 59 65 70 75 80 83 86 87 89 89 89 88 86 85 83 81
 79 76 74 72 70 67 65 63 61 59 57 55 53 51 50 48 46 44 42 40 38 36 34 32
 30 28 27 25 23 21 19 17 15 14 12 10  9  7  6  5  5  5  5  5  5  5  5  5]",3,2022-01-20 10:19:12,2022-01-20 10:19:14
0,"[  26   36   14   19   62   69   38   33   45   55   65   79   86  101
  176  393  723  878  511 -125 -279    0   98   77  139  139  101  125
  139  132  149  154  137  139  142  154  190  212  212  209  224  250
  275  289  299  301  306  316  311  294  248  188  135   57  -21  -43
  -26  -14    0   26   33   12   -4    2    7    0   -2   -4   -4   12
   28   33   33   33   36   55   62   36   21   26   31   33   55   77
   57   19   26   72   98  103  110  118  115   84   69  106  130   98
   79   91   82   57   67  101  123  149  243  460  726  772  357 -173
 -207   28   57]","[60 59 58 56 55 53 52 51 49 48 47 46 45 44 44 43 42 42 41 41 40 39 38 38
 37 36 35 34 33 33 31 30 29 28 27 25 24 23 21 20 18 17 16 15 15 14 15 16
 18 21 25 30 36 43 49 56 63 70 75 81 85 89 91 93 93 93 92 91 89 87 84 82
 79 76 74 72 69 68 66 65 64 63 62 61 61 60 60 59 58 57 56 55 53 52 50 48]",3,2022-01-20 10:19:14,2022-01-20 10:19:16
0,"[  55   48   21   -7    2   26   31   41   53   50   53   60   50   45
   48   31   12   33   65   41    7   26   41   19   21   41   48  115
  328  608  658  287 -178 -250  -79  -24  -24   21   41   16   -7   12
   26    7   14   57   82   84   69   65   84  101  103  123  161  207
  241  255  241  221  243  267  238  207  173  103   55   33   14   12
  -31 -101  -79  -21  -26  -31  -14   -7   -4    9   21    9    7   14
   16   36   72  115  161  161  110   82   74   48   24   33   50   41
   41   57    2  -79  -38   55   55   31   57   72   50   36   21   12
   21   33   19]","[63 70 75 81 86 91 94 95 95 95 95 95 94 93 92 90 88 87 85 83 81 80 78 76
 75 73 71 70 68 66 64 63 61 59 57 55 53 51 49 47 45 43 41 39 37 35 33 31
 29 28 26 25 23 22 20 19 18 16 15 14 14 13 14 14 16 18 22 26 32 38 45 53
 60 68 75 82 88 94 95 95 95 95 95 94 93 92 90 88 85 82 79 77 74 71 69 67]",3,2022-01-20 10:19:16,2022-01-20 10:19:18
0,"[ -36  -45  -36  -16  -24  -31  -24  -14   -9  -16  -33  -36  -28   -7
   16   33   50   45   19   24   53   67   89   96   50   31   79  103
   94  113  139  125   69   50  103  156  159  147  135  137  127   86
   79  113  137  156  296  595  808  610   84 -188  -31   86   28    0
   12   14   41   69   62   50   62   89  110  103   89  103  110  106
  130  149  139  161  197  193  180  221  279  301  291  250  188  123
   60   14   -9  -26  -57 -101 -108  -79  -60  -57  -57  -69  -79  -67
  -48  -33  -24  -16  -19  -14  -12   -9    4    7    9   16    4   -2
   16   31   31]","[26 24 23 22 22 22 23 24 27 30 34 39 45 51 57 64 70 76 82 87 91 94 95 95
 95 95 95 94 93 91 90 88 86 84 82 80 78 76 74 72 70 69 67 65 64 62 61 60
 58 57 55 53 52 50 48 47 45 43 42 40 39 37 36 35 34 33 32 31 30 29 28 26
 25 24 23 22 21 22 23 25 28 32 37 43 49 55 61 67 73 78 82 85 88 89 90 90]",3,2022-01-20 10:19:18,2022-01-20 10:19:20
0,"[  48   24   12   57  152  183  137  130  178  202  190  214  265  279
  272  284  301  279  205  127   69    9  -28  -41  -55  -67  -67  -55
  -41  -36  -28  -21  -31  -43  -38  -16   12   28   24   16   26   50
   82  106  108   91   84   89   79   67   60   57   55   50   36   28
   28   26   28   41   50   57   62   50   45   48   50   55   50   24
   -7   -7   26   55   69   79   84  135  369  706  776  342 -193 -231
   16   77   33   41   60   86  108  110  123  137  125  120  123  103
   94  125  173  188  168  164  185  212  248  291  323  330  330  332
  328  296  236]","[49 47 45 42 40 38 36 34 32 31 29 28 26 25 24 23 22 21 20 19 18 17 16 15
 14 13 13 14 15 17 20 23 28 34 40 47 54 61 68 75 82 87 92 95 95 95 95 95
 94 93 91 89 86 83 80 77 74 71 68 66 63 62 60 58 57 57 56 56 55 55 55 55
 55 54 54 53 52 51 50 48 46 45 43 41 39 38 36 34 33 31 30 29 28 26 25 24]",3,2022-01-20 10:19:20,2022-01-20 10:19:22
0,"[ 118  125   98  110  147  149  137  101   48   55   77   65   82  110
   98   84   89   72   57   86  152  282  501  704  576   55 -258  -89
   55    9   21   69   55   38   48   57   69   72   57   53   53   69
   84   72   69   94  142  190  176  159  193  219  226  238  243  231
  202  159  113   60    2  -36  -50  -60  -57  -53  -60  -67  -60  -50
  -48  -43  -33  -21  -14   -7    4    7   -9  -14    0   12   16   16
   12   19   38   45   38   33   28   33   50   72   84   84   79   84
   86   77   77   94   96   86   79   67   57   57   65   79   98  110
  110  110  110]","[95 93 92 89 87 84 82 79 76 73 70 67 64 61 59 57 55 53 51 49 47 46 44 42
 41 39 37 35 34 32 30 28 26 24 22 20 19 17 16 15 14 13 13 12 11 10 10  9
  8  6  5  5  5  5  5  5  5  5  7  9 12 16 21 26 32 38 44 50 56 60 65 68
 71 72 73 73 73 72 71 69 68 65 64 62 61 59 58 57 56 55 55 55 55 54 54 54]",3,2022-01-20 10:19:22,2022-01-20 10:19:24
0,"[ -24  -14   -4   -4    2   -4  -19  -21  -21  -12    7   16   19   26
   36   48   50   50   45   43   53   57   48   43   50   50   41   45
   60   67   53   50   53   38   33   55   50   24   19   31   38   55
   67   67   96  255  564  781  574    9 -304 -125   36    9   21   50
   43   57   82   74   65   77   98  106  108  115  115  123  147  161
  171  200  234  246  246  250  272  296  308  308  299  260  180  108
   72   55   36    4  -31  -36  -19  -16   -9   14   21    0  -26  -33
   -2   38   38   33   53   48   14    4    4   -2    2    9    0    4
   28   38   33]","[21 23 24 27 30 35 39 44 49 54 59 64 67 71 74 77 78 80 80 81 80 80 80 80
 79 79 78 78 77 77 77 76 76 75 75 74 74 73 72 72 71 71 70 70 70 69 68 68
 67 66 65 63 61 60 57 55 52 49 45 42 38 34 29 25 21 17 13 10  6  5  5  5
  6  8 12 17 23 30 37 45 53 61 68 75 81 86 90 93 94 95 94 94 92 90 87 85]",3,2022-01-20 10:19:24,2022-01-20 10:19:26
0,"[ 270  284  284  279  277  284  272  217  135   65   19  -19  -43  -53
  -53  -33  -16  -19  -28  -36  -55  -65  -45  -16  -12   -7    7  -12
  -36  -26  -12  -16  -21   -7    0  -24  -33  -16  -21  -36  -24  -16
   -9    7   -4  -33  -16    9    7    4   26   43   43   36   28   43
   69   60   45   55   57   50   53   57   55   79  110  110   98   86
   79  103  212  458  745  740  263 -243 -236   -4   21   16   79  101
  127  168  154  137  154  154  135  120  103   98  115  130  137  147
  161  171  185  219  260  289  299  304  318  320  279  197  120   60
    9  -28  -48]","[44 42 40 38 36 34 32 30 27 25 23 20 18 16 13 11  9  7  5  5  5  5  5  5
  5  5  5  6  8 11 14 19 24 30 36 42 48 55 60 65 69 73 76 78 79 80 80 79
 78 77 75 73 71 69 67 66 64 62 61 60 59 58 57 57 57 57 56 56 56 56 56 56
 55 55 54 53 52 50 49 48 46 44 43 41 40 38 37 35 34 33 32 30 29 28 27 27]",3,2022-01-20 10:19:26,2022-01-20 10:19:28
0,"[  65   86  110  132  139  144  149  135  108   86   65   48   53   53
   50   60  118  299  595  738  407 -180 -349 -103   12    4   60   72
   26   24   48   38   24   33   45   50   67   89   86   84   98  118
  139  161  188  212  221  238  272  284  291  301  275  202  123   67
   38   24   14   -9  -31  -14   12    7   -4   26   69   65    9  -28
   -4   36   53   79  108  103   53  -19  -36   14   48   53   67   79
   79   65   48   57   60   45   62   79   57   31   41   62   45   31
   60   72   45   31   33   45   74   74   36    9   21   33   36   38
   43   43   43]","[74 73 71 70 68 68 67 66 66 66 65 65 65 65 64 63 62 61 60 58 56 54 52 50
 48 46 44 42 40 39 38 38 37 37 37 37 37 37 36 36 35 34 33 32 30 28 26 24
 22 20 18 17 16 15 16 18 21 25 30 36 43 51 59 67 74 81 87 92 95 95 95 95
 95 94 93 91 89 87 84 81 78 75 72 69 66 63 60 57 54 52 49 48 46 46 45 45]",3,2022-01-20 10:19:28,2022-01-20 10:19:30
0,"[  41    4  -19  -33  -36  -33  -28  -19   -2   14   33   48   43   38
   33   21    7   -7  -21  -28  -16    4   19   21    9    4   12   16
   12   12   14   21   28   33   43   50   53   57   67   74   77   77
   79   84   94   98   96   98  110  113  110  110  101  101  118  132
  166  291  557  817  719  152 -316 -202   26   21   45  137  161  166
  190  195  185  180  173  164  156  147  132  130  137  144  147  156
  188  246  287  265  243  294  354  369  359  330  265  173   84   14
  -31  -62  -69  -53  -26    4   31   28   12    2    0   21   45   53
   57   72   79]","[ 7  5  5  5  5  5  5  5  5  5  7  8 11 14 19 24 30 36 43 50 57 64 70 75
 80 84 87 88 89 89 88 86 83 81 77 74 70 67 64 61 58 56 54 53 52 52 51 51
 51 52 52 53 53 54 54 54 54 54 53 52 51 51 49 48 46 45 43 41 38 36 33 31
 27 25 22 20 18 18 18 20 24 29 35 43 51 60 69 78 85 92 95 95 95 95 94 93]",3,2022-01-20 10:19:30,2022-01-20 10:19:32
0,"[ 176  200  231  275  316  328  306  277  260  229  166   94   36   12
    2  -14  -16    7   21    9   -7  -16   -7   24   26  -19  -26   14
   24   24   53   72   67   38    0   -4   38   89   77  -14  -65  -28
  -14  -21    7   28   28   33   41   55   74   65   65  106   94   33
   24   43   38   36   21   -2    0    7    7    0    2   38   74   79
  178  463  719  579   33 -325 -200  -48  -62  -31   24   19    4   12
   19   12   16   41   72   62   19   36   91  108  132  156  125  108
  149  188  209  248  267  246  226  212  178  125   57    2  -24  -24
  -26  -50  -74]","[59 57 55 53 51 49 47 45 44 43 42 42 41 41 41 41 41 40 40 39 39 38 37 36
 35 34 34 34 35 37 39 43 46 50 55 60 64 69 73 76 79 81 83 83 83 82 81 79
 77 74 72 69 66 64 62 60 58 57 56 55 55 54 54 54 53 53 53 53 52 52 51 51
 50 48 46 44 41 38 35 31 28 25 22 20 18 17 15 15 14 13 13 12 11 11  9  8]",3,2022-01-20 10:19:32,2022-01-20 10:19:34
0,"[  26   48   41   50   60   33   12   28   45   65   69   62   45   31
   45   74   91  176  427  728  735  255 -253 -236    0   12  -12   53
   67   43   67  103   89   67   84  103   96   98  125  152  166  180
  195  202  212  219  224  243  270  282  284  284  265  231  183   98
    4  -26  -26  -33  -31  -21  -36  -57  -28   12   -9  -21   19   41
   26   24   36   36   41   57   65   48   45   62   62   57   67   77
   69   55   55   62   82  110  120  110   96   84   96  135  161  159
  135  103   91   91   74   69   98  108   91   74   72   65   62   91
  125  178  381]","[77 77 77 76 74 73 71 69 68 66 64 63 62 60 59 58 57 56 55 54 54 53 52 51
 50 49 48 47 46 45 44 43 42 41 41 40 40 39 39 38 38 38 37 36 36 35 35 34
 33 32 32 31 31 30 31 31 33 34 37 40 44 48 53 58 63 68 72 76 80 82 85 86
 87 88 88 87 86 85 83 82 80 78 76 74 72 70 68 66 64 62 61 59 58 57 55 54]",3,2022-01-20 10:19:34,2022-01-20 10:19:36
0,"[ -14  -14    9   38   67   94   82   31   -9   14   55   50   50   67
   65   82  106   84   62   84   86   41   12   26   36   48   69   74
   67   67   69   45   28   57   79   65   45   31   19   14   19   41
   62   38    4   12   28   31   33   41   77  207  460  675  506  -36
 -311 -125   -9  -60  -24   21    0   -4   14   12   12   33   53   45
   28   43   77   94   96  106  120  132  152  178  207  224  238  253
  258  263  258  224  168  101   41    0  -24  -26  -19  -26  -43  -48
  -41  -31  -21  -12   -2    2    0    2   14   38   57   33   12   45
   67   50   60]","[25 24 25 24 24 24 24 24 24 24 26 27 30 32 36 40 44 49 54 58 63 66 70 72
 75 76 77 76 76 75 74 72 71 69 68 66 64 62 61 60 59 58 57 56 55 54 53 51
 51 49 48 46 45 43 42 41 40 38 37 35 34 33 32 30 29 27 26 24 23 21 20 18
 16 14 12 10  9  7  5  5  5  5  5  5  5  5  6  7  9 13 17 22 28 34 41 48]",3,2022-01-20 10:19:36,2022-01-20 10:19:38
0,"[-207   16    2   -9   65   94   98  113  120  127  130  120  118  115
  110  115  127  147  168  178  195  241  289  313  316  308  306  301
  282  253  219  161   79   16  -16  -38  -48  -31  -12  -33  -62  -50
  -12   16   19   14   12    7   12   12   14   31   26   -4   -4   21
   33   50   67   50   38   62   67   45   53   86  113  113   86   79
  103  130  137  120   96   91  118  139  144  147  132  113  108   84
   74  152  313  569  798  670  147 -183  -82  -36  -84    9   65   14
   16   60   67   55   65   74   67   67   77   89  125  178  166  118
  127  164  195]","[53 52 51 50 49 49 47 46 45 45 43 43 42 42 41 41 41 41 41 41 41 41 40 39
 38 37 35 34 33 32 32 32 33 35 38 42 47 52 58 64 70 77 82 87 91 95 95 95
 95 95 94 93 91 89 87 85 82 79 76 74 71 68 66 64 61 60 58 56 55 54 53 52
 51 50 49 49 48 48 47 47 46 46 45 45 44 44 43 43 42 41 40 39 38 36 35 33]",3,2022-01-20 10:19:38,2022-01-20 10:19:40
0,"[  41   38   28   45   53   36  144  439  685  586  108 -282 -226  -33
  -14  -26   14   28   16   19   28   31   26   33   48   57   62   67
   79   84   96  125  142  149  166  183  205  229  241  236  231  224
  171   89   38   16   -9  -36  -50  -50  -50  -48  -31  -19  -16  -26
  -60  -69  -26   14   16   14   16   -2   -7   26   48   33   26   33
   41   41   48   62   65   57   57   57   57   65   67   62   60   74
   94  103   98  110  127  113   79   45   28   33   43   55   43    7
    7   53   91  125  154  188  311  567  774  620   84 -282 -164   -4
  -24   -2   50]","[66 64 62 61 59 57 56 54 52 51 50 49 47 46 46 45 45 44 44 44 44 44 43 43
 42 41 40 38 37 35 33 30 28 26 24 21 19 17 16 14 13 11 11  9  9  8  7  6
  6  6  7  8 10 12 16 20 26 31 38 44 51 58 64 70 76 80 84 87 89 90 90 90
 89 88 86 84 82 80 78 76 74 73 71 70 69 68 67 66 65 64 63 62 61 60 59 58]",3,2022-01-20 10:19:40,2022-01-20 10:19:42
0,"[  19   28   38   36   14   21   55   57   50   77   82   43   16   19
   26   31   43   55   60   55   53   53   50   55   62   65   57   48
   60   96  106   65   45   89  188  407  704  779  376 -164 -214   28
   74   60  132  139   77   55   74   94  118  132  144  154  149  135
  142  171  178  173  205  231  217  231  282  294  287  289  263  229
  219  183  106   45   14   -7  -21  -26  -33  -48  -74  -77  -38  -12
  -16  -16   -2    9   14    0  -21  -16    7   12    2  -12  -28  -16
   19   24   -7  -19    4   21    4  -14  -12   -9  -14  -16   -4   14
   26   14    7]","[16 21 27 34 42 50 59 67 76 83 90 95 95 95 95 95 95 95 94 94 93 91 90 88
 86 85 83 81 80 78 77 76 76 75 74 74 74 73 73 72 72 71 71 70 69 67 66 64
 62 60 57 54 51 48 45 42 39 35 32 29 26 23 20 17 15 12 10  8  7  5  5  5
  5  5  5  5  6  7 10 13 17 21 26 32 38 44 50 55 61 65 69 73 75 77 78 78]",3,2022-01-20 10:19:42,2022-01-20 10:19:44
0,"[  94  103  110  110  106  113  127  132  127  130  149  178  200  221
  246  258  258  258  246  212  156   79   16  -16  -41  -50  -45  -60
  -79  -60  -38  -38  -28  -19  -14   -4    4   16   26   28   33   38
   43   50   43   36   60   77   57   36   38   43   45   48   60   98
  130  130  123  118  113  113  110  106  101   86   65   50   53   57
   55   45   50   84  108   86   28   21   89  178  352  653  822  501
 -118 -340 -110   -7  -45    0   36   21   36   67   74   82  113  123
  110  113   96   65  103  168  176  173  197  246  275  272  294  340
  354  340  323]","[51 50 50 48 47 46 44 42 40 38 35 32 30 27 24 21 18 15 12  9  6  5  5  5
  5  5  5  5  5  5  5  5  5  5  7  9 11 15 19 23 28 34 39 45 51 56 61 65
 69 73 76 78 79 80 81 81 80 80 79 78 77 76 74 73 72 70 69 67 65 64 62 60
 59 57 55 54 52 51 50 48 47 46 45 44 44 43 42 41 41 40 39 38 37 35 34 32]",3,2022-01-20 10:19:44,2022-01-20 10:19:46
0,"[  62   67   41   36   67   79   57   50   67   74   79  108  209  458
  743  743  316 -154 -183    9   53   60  110   98   65   82   94   67
   45   53   79  103   96   84   96   86   96  139  156  164  183  207
  231  243  255  275  289  272  219  147   86   36   -7  -33  -53  -57
  -53  -98 -139  -82  -41  -69  -43    2  -28  -74  -69  -50  -36  -31
  -21  -14  -24  -28  -14   -2    0    4   14   14    9   12   16   14
   16   21   19   19   24   33   33   26   36   65   72   53   19   -2
   14   45   69   72   31   -4   26   60   60   69   96  127  279  559
  704  405 -147]","[87 87 86 85 83 81 80 78 77 75 74 73 73 72 71 71 70 70 69 68 67 66 65 63
 61 60 57 55 53 50 48 45 42 40 37 35 32 30 27 25 23 21 19 17 15 14 12 11
 10  8  7  6  5  5  5  5  6  7 10 13 17 22 28 34 40 47 53 59 64 69 73 76
 78 79 79 79 79 78 76 75 73 71 70 68 67 65 64 63 62 61 60 59 58 57 55 54]",3,2022-01-20 10:19:46,2022-01-20 10:19:48
0,"[   4   31   43   31   24   45   50   41   60   72   55   36   31   26
   24   45   57   36   31   48   50   38   21   14   14    4    2   24
   26   12    7    0   14   43   67  108  214  441  719  711  217 -260
 -193   14    7   31   94   72   48   60   69   72   72   82   98  103
   82   60   74   96  113  152  185  197  219  238  258  279  287  287
  287  277  238  178   94   16  -24  -38  -43  -26   -9  -14  -21  -21
  -21   -9    4   16    7  -12    4   31   26   16   28   53   43   -7
  -16   38   57   38   26   24   33   48   50   50   55   57   55   36
   28   50   57]","[21 23 26 30 35 40 46 53 59 65 71 76 81 85 87 89 90 91 90 89 87 85 83 81
 78 76 73 71 69 67 66 64 63 63 62 62 63 63 63 64 65 65 66 66 66 66 66 65
 64 63 62 60 58 55 52 49 46 43 40 36 33 30 27 25 22 20 19 18 17 17 17 19
 20 23 27 31 37 42 48 55 61 67 73 78 83 86 89 91 91 92 91 90 89 87 85 83]",3,2022-01-20 10:19:48,2022-01-20 10:19:50
0,"[ 149  130  154  195  197  217  258  255  255  289  306  301  304  291
  236  164  106   65   45   28   -9  -43  -53  -50  -33   -7   12   19
   21   19   12    4    2    7   14    0  -26  -28  -12    0    9   26
   33    7   -9    7   26   36   55   53   38   53   65   55   55   48
   26   12    0   -9   -2   16   31   41   28   14   19   31   31   33
   41   38   38   50   57   50   57   74  115  267  562  798  632   55
 -301 -127   50   26   55  115  118   98  103  156  193  159  164  195
  142   86  106  137  144  164  205  246  265  287  320  340  335  330
  320  301  267]","[59 58 56 55 53 50 48 45 42 39 36 33 30 27 24 21 18 15 12 10  7  5  5  5
  5  5  5  7 10 13 18 23 28 34 40 46 52 58 62 67 70 73 75 76 76 76 75 74
 73 71 70 68 67 65 64 62 61 60 59 59 58 57 57 56 55 54 53 52 50 49 48 46
 45 43 42 41 39 38 37 36 35 34 33 33 32 32 32 31 31 31 30 30 29 29 28 27]",3,2022-01-20 10:19:50,2022-01-20 10:19:52
0,"[ 236  521  820  815  318 -207 -200   -2  -26  -33   31    9  -14   31
   57   31    4    9   12   24   74  118  120  118  137  144  135  139
  154  166  185  200  214  238  255  246  226  185  113   45   16    2
    0    2  -19  -31   -2   26   36   48   50   43   53   53   41   62
   77   53   60  115  137  123  101   77   50   41   62   72   53   57
   84   74   60   74   55    4    4   43   65   79   79   72   72   82
   84   82   67   53   48   43   33   26   31   48   36   24   48   53
   14  -16  -12  -21  -19   89  301  571  721  429 -115 -253  -28    4
  -57   16   55]","[69 67 66 64 63 61 61 60 60 59 59 59 60 60 60 60 61 61 61 60 60 59 58 57
 56 54 52 50 48 46 43 41 38 36 33 31 29 27 26 24 23 22 22 22 22 22 22 21
 21 20 20 19 19 19 19 19 21 23 26 29 33 38 43 48 53 58 62 66 69 71 72 73
 73 72 71 70 68 66 64 62 60 59 57 56 55 54 53 52 52 51 50 50 49 48 47 47]",3,2022-01-20 10:19:52,2022-01-20 10:19:54
0,"[ -65  -53  -41  -36  -33  -31  -31  -31  -41  -67  -65  -19    9    0
   -7    7   19   19   24   28   28   31   33   33   31   28   21    4
  -12  -16  -14   -4    4    7    4   16   36   41   36   31   33   31
   28   36   50   57   53   43   50   62   62   65  123  328  637  774
  451 -115 -289  -67   21   -9   48   79   50   67   91   79   65   79
  110  125  106   89   98  108  113  152  207  241  255  275  296  320
  330  313  294  287  267  209  132   69   33   19   14   -2  -50  -79
  -53  -19    2   33   41   24    9   12   28   38   43   38   24   43
   77   72   48]","[ 5  5  5  5  5  5  5  5  5  7  9 12 16 20 25 31 37 43 49 54 60 64 68 71
 74 75 76 76 76 75 73 71 69 67 65 63 61 58 57 55 53 52 50 49 48 47 46 45
 45 44 43 42 42 41 40 40 39 39 38 38 38 37 37 37 37 36 36 35 35 34 33 32
 32 30 30 29 28 28 28 29 30 32 35 38 42 46 51 55 60 65 69 72 76 78 80 81]",3,2022-01-20 10:19:54,2022-01-20 10:19:56
0,"[  55   60   84  132  168  188  217  241  248  246  258  282  284  248
  178   96   36   -2  -33  -45  -33  -12   -9  -28  -33  -24   -9   36
   84   69   28   26   50   57   65  108  159  144   84   36   16   69
  127  115   98  106  101   96   98   84   60   38    0  -16   28   67
   60   60   65   48   55   82   72   53   53   55   50   50   57   74
   98  207  487  752  639  130 -246 -144   55   48    9   31   31   21
    9  -26  -24   19   14   -4   19   48   69   84   82   86  106  110
  118  152  171  171  195  217  214  214  212  171  106   57   24   -9
  -48  -57  -36]","[61 60 59 58 56 54 52 50 48 46 44 42 40 38 37 35 34 33 33 32 33 34 36 39
 42 46 50 55 61 66 71 76 80 84 87 89 91 91 92 91 90 89 88 86 84 82 80 78
 77 75 74 72 71 70 69 68 67 67 66 65 65 64 63 62 61 60 58 57 55 53 51 49
 47 45 42 40 38 36 34 32 30 28 26 24 23 21 20 18 16 14 13 11 10  9  9 10]",3,2022-01-20 10:19:56,2022-01-20 10:19:58
0,"[  12   -4   19  142  422  697  610   96 -332 -260  -41  -14  -12   26
   31   38   50   53   77   94   69   43   53   86  110  110  110  135
  159  171  193  205  238  316  352  313  291  299  289  258  217  159
   98   55   28   12  -16  -41  -41  -45  -55  -50  -48  -50  -45  -41
  -26   -2  -19  -28   36   69   43   53   74   62   43   38   38   31
   24   21   28   43   65   62   36   33   60   77   86   82   48   26
   57   82   69   69   86   94   89   89  103  127  161  241  453  750
  774  313 -127  -60  115   55   21   72   60   43   67   91  115  127
  106   65   38]","[80 78 77 76 75 74 74 73 72 72 71 71 70 69 68 67 65 64 62 60 57 55 53 51
 49 47 45 44 43 42 41 40 40 40 39 39 39 39 39 40 41 43 45 48 51 55 60 64
 69 74 78 82 85 88 90 92 92 93 92 91 90 88 86 85 82 81 78 77 75 73 72 71
 69 69 68 67 66 65 64 64 62 61 59 58 56 54 52 50 47 45 42 40 37 35 33 31]",3,2022-01-20 10:19:58,2022-01-20 10:20:00
0,"[  16   21   16    2  -14   -9    9   24   19   12   19   36   43   36
   38   57   57   45   36   16    9   31   62   69   53   43   57   57
   24   16  103  313  576  731  513  -38 -308 -106   33  -12    9   45
   28   50   94   72   28   14   28   57   57   55   79  106  125  137
  144  152  171  200  229  253  272  284  284  270  248  212  147   74
   24  -12  -36  -48  -57  -55  -48  -53  -53  -45  -24    2   -7  -31
  -31  -28  -28  -14    7   24   19   24   62   91   82   60   89  135
  106   43   53   91   79   57   89  130  127  113  120  120  110  106
   94   84   84]","[47 53 59 65 70 74 77 79 80 80 80 79 77 75 73 71 69 67 65 63 62 60 59 58
 58 58 57 57 57 57 57 57 57 57 57 57 57 57 56 56 55 53 52 49 46 43 39 35
 31 26 22 17 13  8  5  5  5  5  5  5  5  5  5  5  5  5  5  5  5  5  5  5
  5  5  5  5  7  9 12 16 20 25 30 36 41 46 51 55 59 62 65 68 69 70 71 72]",3,2022-01-20 10:20:00,2022-01-20 10:20:02
0,"[ 190  207  224  236  258  279  284  299  320  304  231  156   89   50
   50   33   -4  -21  -16  -24  -28  -28  -31  -41  -33   -9  -14  -41
  -24   21   45   60   82   74   33   -4  -31  -53  -31   36   53    9
    4   28   36   31   41   53   48   41   48   55   50   43   36   53
   69   65   77   98  103  120  135  101   72   91  101   74   69   84
   74   82  164  366  656  796  492  -57 -236  -36   53   41   94  103
   45   33   67   72   57   48   48   65   89  103  106  106   96   91
  108  137  159  195  241  258  253  250  236  214  214  209  152   60
   -9  -45  -67]","[45 44 42 41 39 38 36 34 33 31 30 28 27 26 25 24 23 23 22 22 22 23 23 24
 26 28 31 34 38 43 47 52 57 61 66 70 73 76 78 80 81 81 81 81 81 80 79 78
 77 76 75 74 73 72 70 69 68 67 66 64 63 62 61 60 58 57 55 53 51 49 46 44
 42 39 37 35 33 31 29 28 27 26 25 25 25 24 24 24 24 24 23 23 22 20 19 18]",3,2022-01-20 10:20:02,2022-01-20 10:20:04
0,"[  53   41   43   41   12    7   43   77   72   48   38   36   53   72
   65   74  108  190  446  760  680  108 -294 -173  -24  -60  -28   33
   12   -4   14   24   26   48   86  103   89   89   96   98  113  120
  125  139  154  159  173  205  236  260  277  275  238  202  164  103
   50   16  -33  -60  -38  -19  -12  -16  -55  -67  -48  -36   -2   43
   43   14   14   41   50   38   26   26   28   26   26   31   36   38
   38   41   55   77   84   72   69   82   84   84   89   65   -4  -65
  -43   19   48   62   89   82   38   53  110  144  173  250  443  731
  830  429 -166]","[70 69 67 65 63 61 59 58 56 54 53 51 50 49 48 48 47 47 46 46 45 45 44 43
 42 41 39 38 36 34 32 30 28 26 24 23 21 20 18 17 15 15 13 13 11 11 10  9
  8  9  8 10 11 14 17 21 26 31 37 43 49 56 61 67 72 76 79 82 83 85 85 85
 84 83 82 80 79 77 75 74 72 71 69 68 67 66 65 64 63 63 62 61 60 60 59 59]",3,2022-01-20 10:20:04,2022-01-20 10:20:06
0,"[ -16   12   31   33   31   26    7   -4   16   53   67   57   41   33
   50   74   79   67   48   26   14    9   16   43   55   38   55   89
   62   33   82  243  504  697  588  135 -231 -168  -36  -53  -26   31
   38   55   77   77   79   96  108  103   96   94   91  106  139  168
  176  183  188  178  176  224  284  267  241  253  236  226  205  106
   16   -9  -38 -135 -200 -132  -65  -60  -24    4  -12   -7   16   19
    7   -2    7   31   28   -4  -26  -16    4   21   21   36   57   48
   33   26   24   43   41   16   41   94   74   33   55   65   50   65
   72   69   86]","[26 32 39 45 52 59 65 70 75 79 82 84 85 85 84 83 81 78 76 73 70 68 65 63
 60 58 56 55 54 53 52 51 50 50 49 49 49 48 48 47 47 46 45 44 43 42 40 39
 37 35 33 31 29 28 26 24 22 21 19 18 16 15 14 12 12 11 10 11 11 12 13 15
 18 22 26 32 38 45 52 60 68 75 83 89 95 95 95 95 95 95 95 94 93 91 90 88]",3,2022-01-20 10:20:06,2022-01-20 10:20:08
0,"[ 217  258  277  270  265  263  231  173  110   53    0  -31  -45  -60
  -72  -72  -69  -69  -62  -53  -48  -45  -33  -19  -24  -31  -21   -7
   -4   -7   -2   -2   -4    4    9    7    9    7   -2   -2   16   38
   50   48   28   21   41   43   28   28   28   33   50   57   55   62
   53   28   36   62   57   45   48   57   53   57   74  106  224  489
  755  692  197 -231 -159   36   31   28   82   77   53   65  106  108
   82  101  144  149  142  156  164  149  137  118  120  156  188  202
  219  243  263  272  277  282  260  209  139   65   16    2   -4    2
   19   31   36]","[30 29 28 26 25 23 22 20 19 18 16 15 13 12 10  9  7  5  5  5  5  5  5  5
  6  8 11 14 19 24 29 35 41 47 53 58 63 66 70 72 74 74 75 74 73 72 71 68
 67 65 63 61 60 59 58 57 57 56 56 56 56 56 56 56 56 56 56 55 55 54 54 53
 52 50 49 47 45 43 41 38 36 34 32 29 28 26 25 23 22 21 21 21 21 21 21 21]",3,2022-01-20 10:20:08,2022-01-20 10:20:10
0,"[  53   72   79   62   50   77  115  173  357  644  750  419 -110 -236
   -9   60   12   50   91   96  103  108   89   55   55   96  127  149
  188  195  164  168  209  236  253  260  258  267  287  306  325  337
  323  284  217  120   65   53    4  -38  -24  -24  -41   -4   43   38
   21   31   38   28   41   72   57   16   24   74   65  -21  -53   12
   41   26   45   91   65  -28  -26   45   55   43   62   60   43   48
   53   36   33   43   26    2   14   36   21    9   24   31    0   -2
   67  234  530  786  588  -43 -357 -123   24  -28   14   67   43   45
   69   69   72]","[73 71 69 67 65 64 62 61 60 59 58 58 57 57 57 57 57 57 57 57 56 56 55 54
 53 51 49 48 45 43 40 38 35 32 29 26 22 19 16 14 11  9  8  7  7  9 11 14
 17 22 27 33 38 44 50 55 60 64 67 70 72 73 73 73 72 71 70 68 66 64 62 61
 59 58 56 55 54 54 53 53 53 53 52 52 52 52 52 51 50 50 48 47 45 44 42 40]",3,2022-01-20 10:20:10,2022-01-20 10:20:12
0,"[  31   28   26   26   36   43   33   19   16   26   38   55   50   36
   48   79  103   91   65   65   86  185  448  723  634  132 -229 -147
  -14  -24   -4   28   26   38   60   65   67   69   67   69   74   91
  123  139  152  183  207  221  246  275  282  275  299  345  361  357
  325  253  166   79    9  -48 -118 -144 -108  -77  -65  -43  -28  -38
  -41  -36  -33  -21  -16  -14    0   12   14   14   16   28   41   36
   36   50   43   19   26   53   55   50   53   57   48   26   16   28
   53   74   74   67   74   69   57   62   55   45   72   91   67   53
   69   57   21]","[73 75 77 78 79 80 79 79 78 77 75 73 71 69 67 65 62 60 58 56 54 53 51 50
 49 49 48 48 47 47 47 47 46 46 46 46 45 44 43 43 41 41 39 38 37 36 34 33
 32 31 30 29 27 27 25 25 23 23 22 22 22 24 25 28 31 36 40 46 51 58 63 69
 73 78 82 85 87 89 90 91 90 90 89 88 87 86 84 83 81 80 79 78 77 77 75 75]",3,2022-01-20 10:20:12,2022-01-20 10:20:14
0,"[ -16   12   31   12   12   21   16   26   36   12   -7   -2    4    9
    2    4   31   33   12    7   12   21   38   38   28   48   65   38
   16   38   45   26   43   72   45   24   55   74   48   38   45   38
   19    7    9   12   24   28   14   26  118  320  608  740  429 -127
 -294  -74    4  -50  -33   21   60   62   38   36   45   50   48   45
   62   84   84   84  106  127  130  125  144  180  209  231  255  270
  263  253  243  200  120   38   -7  -12  -16  -33  -36  -28  -41  -48
  -43  -41  -41  -48  -55  -41  -38  -45  -45  -26   -4   -2    0    9
   -4  -36  -24]","[20 19 16 15 12 11 10 11 11 14 17 21 27 33 41 49 57 66 74 82 88 95 95 95
 95 95 95 94 93 92 90 88 85 83 80 77 75 72 69 67 65 63 61 60 58 57 56 55
 54 53 53 52 51 50 49 48 47 46 45 44 42 41 40 39 37 36 35 33 32 31 29 28
 26 25 23 22 21 19 18 17 16 15 14 13 13 13 14 16 18 21 25 30 35 42 48 56]",3,2022-01-20 10:20:14,2022-01-20 10:20:16
0,"[  55   60   69   57   36   62  183  441  723  711  236 -241 -205   31
   55   36   69   65   43   45   55   53   50   67  103  123  115  118
  127  132  149  168  178  195  221  236  248  270  287  289  284  277
  250  197  127   57   -2  -43  -65  -60  -43  -36  -36  -31  -24   -7
    2    0    9   33   41   28   28   48   69   60   48   48   45   43
   43   50   55   45   38   65   91   74   65   86   89   79   62   28
   21   67   89   69   94  142  149  149  144  101   50   24   16   26
   33   38   36   36   21    2   21   53   79  209  506  769  670  159
 -241 -159    7]","[65 62 59 56 54 52 50 48 47 46 45 45 44 44 44 44 45 45 45 45 45 45 44 44
 43 41 40 38 36 34 32 30 28 26 24 22 21 20 19 18 18 17 17 17 17 17 17 17
 17 17 18 19 21 23 25 28 32 36 41 45 50 54 58 62 65 68 70 72 73 73 73 72
 71 70 68 67 65 63 62 60 59 57 56 54 53 51 50 49 48 47 46 45 44 43 43 42]",3,2022-01-20 10:20:16,2022-01-20 10:20:18
0,"[   2  -16    0   16    7   14   31   24   12    9    4    2    2   -9
  -14  -14  -12   -7  -14  -16    4    9   -2   16   53   55   41   38
   31   21   21   21   19   14    4    9   24   33   31   26   31   43
   48   38   33   50   62   86  243  550  743  504  -53 -299 -106    7
  -31    4   43   28   38   65   69   65   69   82   94   98   91   91
  103  123  135  135  156  205  221  226  248  265  275  299  328  306
  234  161   98   41   -2  -31  -45  -50  -48  -38  -16    9    9    0
    2    2   -4   14   48   57   33   21   24   33   53   55   31   16
   33   45   38]","[ 5  5  5  5  5  5  7  9 12 17 22 28 34 40 47 53 59 64 68 72 74 76 77 77
 77 76 74 73 71 69 67 65 63 61 59 58 57 56 55 54 53 53 52 52 51 51 50 49
 48 47 46 45 44 42 40 39 37 36 34 32 31 29 28 27 26 25 24 24 23 22 22 21
 21 21 21 22 23 24 27 30 33 38 43 48 53 59 64 70 74 78 82 85 87 88 89 89]",3,2022-01-20 10:20:18,2022-01-20 10:20:20
0,"[  65  101  171  209  224  236  260  289  299  282  258  231  176   94
   31    0  -21  -26   -9    4  -12  -38  -41  -31  -31  -26    4   38
   41   21   16   31   55   72   72   74   65   26   19   65  101   96
   65   38   38   36   31   67   89   62   45   79  106   72   14   24
   57   57   72   91   69   48   57   72   69   62   60   89  209  475
  735  663  168 -226 -142   26   16    4    7   -9   19   41   31   48
   67   60   65   94   98   74   96  142  125   82   94  130  139  171
  229  238  214  219  229  205  164  120   55   -9  -48  -60  -62  -65
  -67  -48  -28]","[48 47 46 44 43 42 41 39 38 37 35 34 33 31 30 29 28 28 28 29 30 33 35 39
 43 47 52 57 62 67 71 74 78 80 82 83 83 83 83 82 80 79 77 76 74 72 71 69
 68 67 66 65 64 63 63 62 61 60 60 59 58 56 55 53 51 49 47 44 42 39 37 34
 32 29 28 25 24 22 21 20 19 18 17 16 15 14 14 14 14 14 15 17 19 22 26 31]",3,2022-01-20 10:20:20,2022-01-20 10:20:22
0,"[  31   48   91   91   65   84  120  135  137  142  149  154  166  185
  207  229  250  275  294  306  287  234  178  120   62   24   -7  -31
  -38  -33  -19   -7   -7   -9   -7   -2    2   -7   -9   -9  -24  -19
    9   14   -7  -21  -24  -28  -14   14   24   24   43   65   79   74
   43   21   24   24   28   45   55   55   53   45   53   72   86   98
   96   67   57   82  156  364  675  810  494  -50 -219   -4   94   91
  168  185  101   72  113  139  159  166  149  118   96  115  164  207
  180  118  142  193  185  212  267  282  287  304  311  289  231  168
  118   72   33]","[46 46 46 45 45 45 45 44 44 43 42 41 40 39 38 37 35 34 32 31 29 28 26 25
 24 23 22 22 22 23 25 28 31 35 40 46 52 59 65 71 77 83 88 92 95 95 95 95
 95 94 93 91 89 87 85 83 81 79 78 77 76 75 74 74 74 74 74 74 74 73 73 72
 71 70 68 67 65 62 60 57 54 52 49 46 43 40 37 34 32 29 27 25 23 21 20 19]",3,2022-01-20 10:20:22,2022-01-20 10:20:24
0,"[ 545  791  675  161 -197 -110    7  -16    0   31   31   41   55   60
   69   84   98  123  139  147  156  149  132  156  197  176  142  176
  205  202  224  265  263  241  231  200  135   72   21  -24  -62  -57
  -36  -60  -96  -96  -79  -67  -65  -67  -48  -24  -21  -31  -31  -26
  -26  -26    0   31   19    2   24   38   24   14   33   77   86   60
   43   43   45   60   94  118   98   62   53   69   91   94   74   48
   45   55   53   74  118  125  106  115  205  456  769  801  323 -221
 -226   21   48   24   91  108   72   67   77   77   62   48   50   69
   96  120  164]","[75 73 71 69 67 66 64 63 62 60 59 58 57 56 55 53 52 50 49 47 46 44 43 41
 39 37 36 34 32 30 28 26 24 21 18 15 13 10  8  5  5  5  5  5  7 10 14 19
 25 32 39 46 54 61 68 73 78 82 85 87 88 88 87 86 84 82 79 76 74 71 69 67
 65 63 62 61 60 59 59 59 59 59 59 58 58 58 58 57 57 56 55 53 52 50 49 47]",3,2022-01-20 10:20:24,2022-01-20 10:20:26
0,"[  62   69   41   -4  -16    4   19   33   60   79   79   82   86   79
   84   94   57    2   14   55   74   96  118  171  369  658  750  402
 -103 -190   16   33  -26   28   50   31   57   89  101  103   84   79
  110  120  106  130  173  144  101  139  202  226  253  272  246  224
  236  241  236  226  180  106   45    4  -28  -50  -55  -45  -36  -43
  -65  -55  -48  -62  -28   28   26  -12  -24  -19  -14   -4    9    9
    2    2   -4  -24  -16   12   19   -2   -7    0    0   -4   -4    9
   21   19    9   -2  -26  -31  -14   -4   -2   -7    4   28   28   14
    9    0   -4]","[37 44 50 57 63 69 74 78 82 85 86 87 88 88 87 86 85 83 82 80 78 76 75 73
 72 70 68 67 66 64 64 62 62 61 60 59 59 58 57 56 56 54 53 52 50 48 47 45
 43 40 39 36 34 31 29 26 24 21 19 17 14 12 10  7  5  5  5  5  5  5  5  5
  7  9 12 15 19 23 28 33 38 43 48 52 56 59 62 64 65 66 66 65 65 64 62 61]",3,2022-01-20 10:20:26,2022-01-20 10:20:28
0,"[ 108   43   14  -12  -38  -43  -45  -57  -65  -62  -62  -72  -69  -74
  -89  -79  -50  -31  -16  -14  -24  -19   -7   -4   -4    2   12   14
   14   19   26   26   24   31   38   48   57   67   65   65   77   69
   45   57   84   82   82  108  113   84   67   84  115  168  352  690
  871  501 -142 -306  -45   26  -24   31   74   72   82   69   50   79
  110  103   94  103  118  137  159  171  159  154  188  234  229  221
  270  294  243  221  253  234  166  101   41   -2  -28  -43  -60  -84
  -86  -48   -9    9   16    9    9   24   43   60   55   33   26   45
   57   55   77]","[18 20 22 25 27 30 33 35 37 39 40 40 40 40 40 39 39 39 40 42 44 46 50 53
 58 62 66 70 74 78 81 83 84 85 85 84 83 81 78 76 72 69 65 62 59 56 53 51
 49 47 46 45 44 44 43 43 43 43 43 43 42 42 42 42 41 41 40 40 39 38 37 36
 34 33 31 29 26 24 22 20 17 16 16 17 18 21 25 30 36 43 50 57 64 71 76 81]",3,2022-01-20 10:20:28,2022-01-20 10:20:30
0,"[ 147  137  132  164  205  236  265  291  318  342  323  263  241  243
  195  118   72   38   -2  -19  -14  -12   -7    7   38   53   28   14
   28   38   53  110  135   53   -7   43   72   38   48   98   94   48
   31   38   41   33   26   28   24   -4   -4   38   55   48   53   57
   50   48   60   69   60   36   33   67   65   28   26   28   57  221
  513  760  670  149 -265 -176   -2   -4   12   36   12   24   48   38
   33   50   53   48   55   72   82   86   96  110  123  135  149  166
  188  209  226  250  260  253  246  221  147   38  -19  -12  -21  -62
  -79  -72  -57]","[54 52 50 48 45 43 40 37 35 32 31 28 27 25 23 22 21 19 19 17 17 16 15 15
 15 15 17 19 22 25 29 33 39 44 49 54 59 64 68 71 75 77 79 80 81 81 81 80
 80 78 77 76 75 73 72 71 70 68 67 66 64 63 61 59 58 56 54 52 50 48 47 45
 44 42 41 39 38 36 35 33 32 30 29 27 25 22 21 18 17 15 15 14 15 16 19 22]",3,2022-01-20 10:20:30,2022-01-20 10:20:32
0,"[  21   36   45   48   57   69   69   50   45   84  120  135  159  195
  214  234  265  279  260  250  250  202  123   57   16  -16  -41  -48
  -48  -38  -19  -21  -31  -41  -50  -38  -19  -14   -2    9    7    4
   12   16   24   31   28   28   26   14   21   36   38   38   36   31
   31   33   33   24   19   41   55   41   19   -4  -16    4   21   21
   38   62   65   72  123  287  574  764  533  -26 -275  -82   31   -9
   16   62   67   72   91   91   69   72   98  106   89   74   91  144
  190  166  123  135  173  212  255  275  267  255  255  277  267  205
  135   79   31]","[58 58 57 57 56 55 53 52 50 48 45 43 41 38 35 33 30 27 24 21 18 16 12 10
  7  5  5  5  5  5  6  9 12 17 22 29 35 43 50 58 65 72 77 83 86 90 92 94
 95 95 94 94 93 92 91 90 88 87 86 84 83 82 80 79 78 77 76 75 74 74 72 72
 71 70 69 68 67 65 64 62 60 59 57 55 53 51 49 46 44 42 39 37 34 31 29 26]",3,2022-01-20 10:20:32,2022-01-20 10:20:34
0,"[  53   57   60   53   41   41   57   72   72   82   98  123  214  446
  714  731  311 -173 -202    9   53   53  103   98   77   94   91   79
   84   91   96   91   89  106  118  120  139  156  171  188  205  219
  234  255  270  265  243  241  253  207  108   43    7  -28  -36  -28
  -38  -38  -41  -57  -41   -7  -16  -43  -36  -26  -31  -28  -21  -14
   -7  -12  -28  -19   -4  -16  -24  -12  -19  -26  -14   -7   -9   -2
    2    4    7    7   12   16   16   14    0    4   24   31   28   28
   33   43   53   48   45   72  166  402  711  755  306 -231 -267  -19
   33   19   69]","[91 89 86 84 81 78 75 73 71 70 68 67 66 66 65 66 65 65 64 64 63 62 60 59
 57 55 52 49 45 43 39 35 31 28 24 21 17 14 10  8  5  5  5  5  5  5  5  5
  6  8 11 15 20 25 31 38 45 52 59 65 71 76 80 83 85 86 86 85 84 82 80 78
 75 73 70 68 66 64 62 60 59 58 56 56 54 54 53 52 52 51 50 49 48 47 46 45]",3,2022-01-20 10:20:34,2022-01-20 10:20:36
0,"[  -9  -21   -4    4   -4    2    4  -19  -16    7    4    9   26   31
   45   65   55   41   36   31   28   43   62   74   65   41   48   74
   84  118  275  564  748  504  -60 -320  -94   86   55   55   79   65
   79   69   19   26   79   82   65   72   74   79  108  139  152  171
  202  217  224  260  296  294  279  277  272  243  185  113   65   43
   24    2  -14   -4   14   16    2    4    9   14   24   24   24   36
   41   50   84   89   43   12   55  113  115   98   98   84   50   31
   41   67   89  101   82   16  -12   41   98   91   67   74   84   60
   38   45   57]","[15 19 25 30 37 43 50 55 61 66 70 73 76 78 78 79 78 78 76 75 73 71 69 67
 65 64 62 60 59 58 57 56 55 55 54 54 53 53 53 53 52 52 52 51 51 50 49 49
 47 46 45 43 42 40 37 35 33 30 28 25 22 20 18 16 14 13 11 11 11 11 13 15
 18 22 26 32 37 44 49 56 61 67 71 75 78 81 82 83 82 82 81 79 77 75 73 71]",3,2022-01-20 10:20:36,2022-01-20 10:20:38
0,"[ 270  320  335  325  328  311  275  270  248  164   86   53   14  -24
  -14    2  -12  -26  -24  -14   -9   -7    2   14    2  -24  -24   12
   21    7  -16  -45  -24   16   21   19   16   -9  -16   12   21   24
   43   45   12   -4   16   36   48   53   38   26   28   24    2    4
   28   26   19   36   62   69   79  190  456  723  675  195 -248 -224
  -36  -14   -9   36   41   38   55   67   77   89   91   94   98  106
  127  147  132  115  154  195  193  202  229  238  250  282  296  294
  289  241  147   60   21    9   -4  -28  -36  -28  -31  -36  -43  -50
  -24   26   36]","[25 22 19 16 14 11  9  7  6  5  5  5  7 10 14 18 24 30 37 43 50 55 62 67
 71 75 78 80 82 83 84 83 83 82 81 79 78 76 74 72 70 68 66 64 62 60 59 57
 56 54 52 50 49 47 46 44 43 41 40 39 38 36 35 33 32 31 29 28 26 24 23 21
 19 17 15 13 11  9  8  7  7  8 10 12 16 21 27 34 42 49 57 65 72 79 84 89]",3,2022-01-20 10:20:38,2022-01-20 10:20:40
0,"[  94  106  125  147  161  171  185  202  217  231  234  238  260  265
  238  200  152  101   77   60   -2  -77  -79  -38  -19  -14   -7    9
   12    2   -7   -9    0   16   24   31   41   41   36   50   65   62
   62   65   57   55   86  130  147  108   36   26   77   96  108  135
  132  113  120  137  132  115   89   62   60   94  130  108   38    0
   31   72  125  301  605  796  569    7 -291 -142  -12  -16   28   60
   33   38   74   96   94   79   84  113  120  125  149  166  156  149
  161  197  224  219  212  219  236  263  282  277  236  147   74   33
  -12  -53  -65]","[45 44 42 41 39 38 37 36 35 34 33 33 32 32 31 31 31 30 30 30 30 29 29 28
 28 28 28 29 30 31 34 36 40 44 48 53 59 63 69 73 77 81 84 86 88 89 89 88
 87 86 84 82 79 76 74 71 68 65 63 60 58 56 55 53 52 50 49 48 47 46 45 45
 44 43 42 41 40 40 39 38 37 36 35 35 33 32 31 29 28 26 24 23 21 20 20 20]",3,2022-01-20 10:20:40,2022-01-20 10:20:42
0,"[ -38    4  -33   16   41   16   24   38   31   21   28   38   50   60
   53   50   69   86  106  132  147  156  176  197  217  236  241  224
  207  171  103   48    7  -36  -72  -79  -53  -21  -28  -53  -67  -77
  -72  -48  -28  -24  -16   -9  -16  -21  -14   -7    0   -2    7   43
   45   21   19   12    0   19   41   21    9   28   14   -9   26   67
   62   91  144  113   21  -12   -9  -19    0   36   45   41   31   21
   38   53   98  291  595  774  552   21 -241  -82   33   12   38   65
   65   77   77   86  115  118   96   94  115  135  144  139  123  115
  132  180  238]","[67 67 67 66 66 66 66 65 65 64 63 62 61 59 57 55 53 51 49 46 44 41 39 36
 34 32 30 28 26 25 23 22 21 20 20 20 20 21 23 25 28 31 36 41 46 52 58 63
 69 74 79 83 87 90 92 94 95 95 95 95 94 94 93 93 92 91 90 90 89 88 87 86
 86 85 84 83 82 80 79 77 75 73 71 69 66 64 61 59 57 55 53 51 49 48 46 45]",3,2022-01-20 10:20:42,2022-01-20 10:20:44
0,"[  82   74   77   72   62   50   38   28   31   55   91   77   33   48
   96  106  103  108   86   62   74   94   91   91   91   77   60   74
  103  130  195  388  692  834  504  -62 -229  -21   77   69   96   89
   74   96  108  113  123  106   67   55   98  149  149  139  130  110
  125  168  207  231  255  287  320  345  352  320  258  178  101   50
   33    9  -53  -94  -77  -57  -60  -79  -86  -72  -48  -21   -7  -14
   -7    7    4    0   -9  -28  -33  -19   -2    2   -4   -4    4    2
   -9  -14   -7   -2   -2   -2    7   28   33   14    2    7    4   -2
    0   19   28]","[44 51 57 64 70 76 80 84 87 90 91 91 91 90 89 87 85 83 80 78 76 74 72 71
 69 68 67 66 65 64 63 62 61 60 59 58 57 56 54 53 51 50 48 46 44 43 41 39
 38 36 35 33 32 31 30 29 28 27 25 24 22 21 20 18 17 17 17 18 20 23 26 30
 35 40 46 51 56 61 65 69 72 74 76 77 77 77 76 75 73 72 70 68 66 64 62 60]",3,2022-01-20 10:20:44,2022-01-20 10:20:46
0,"[ -33  -41  -50  -57  -72  -74  -65  -60  -60  -62  -60  -53  -48  -28
  -14  -21  -21   -2   28   50   33   -9  -31  -26    2   33   33   14
    0  -19   -7   24   24   24   31   19    9   36   60   48   36   48
   50   36   33   48   57   57   55   45   43   48   53   50   41   38
   48   55   57   91  258  557  767  562  -24 -335 -120   67   36   43
   79   69   65   69   67   77   67   38   50   89  101  110  118   96
   82  118  156  161  178  212  238  255  267  279  279  258  226  173
  108   62   33    7    0   21   43    7  -16   12   33   38   55   57
   43   38   53]","[ 8  5  5  5  5  5  5  5  5  5  5  5  5  5  5  6  7  9 12 16 20 24 29 34
 39 44 49 53 57 61 64 66 68 69 69 70 70 70 69 68 68 67 66 65 64 63 62 62
 61 60 59 59 58 57 56 56 55 55 54 53 52 52 51 50 49 48 47 46 45 44 42 41
 40 39 38 37 36 36 34 34 33 33 32 31 30 30 28 27 26 25 23 22 20 20 19 19]",3,2022-01-20 10:20:46,2022-01-20 10:20:48
0,"[ 234  494  764  728  250 -200 -147   43   12    2   84   98   91  108
  103  120  166  161  135  152  176  178  176  176  166  180  224  229
  193  200  248  272  282  284  279  253  197  130   86   53    4  -48
  -89  -89  -69  -57  -36  -14  -12  -19  -19   -4   19   38   33   28
   41   41   36   43   45   33   24   31   16   -4    9   31   24   28
   48   53   24    2   19   36   38   31    9    7   12    0   -2   14
   26   33   41   28    4   14   31   31   48  123  337  649  743  332
 -241 -313  -48    0  -53    2   28   -2    9   55   82   84   72   55
   62   82   84]","[63 61 59 58 57 56 55 55 55 54 54 54 54 54 54 53 53 52 52 51 50 48 47 45
 44 42 40 38 35 33 31 28 26 23 21 18 16 14 12 11 10 10 10 11 13 16 20 24
 28 33 37 42 46 50 53 56 58 60 61 62 62 62 62 61 61 60 59 58 58 57 56 55
 53 52 51 50 49 48 47 46 45 44 43 42 40 39 38 37 35 34 32 31 29 27 26 24]",3,2022-01-20 10:20:48,2022-01-20 10:20:50
0,"[  -2   -4    9   19   12   14   28   43   45   36   43   45   16   14
   48   48   33   31   16   12   36   36   12   12   19   24   38   43
   53   84  171  374  634  673  272 -212 -243  -14   31    4   53   86
   91   82   67   72   89  103  110  108   98  101  113  115  123  135
  137  139  154  168  190  229  265  275  253  238  221  173  106   48
    2  -14  -12  -16  -28  -28  -21  -19  -24  -16   -4    2    7   16
   24   19   21   38   36   31   41   43   36   41   48   48   50   53
   60   69   67   60   62   62   62   57   62   69   62   57   67   74
   72   77   79]","[57 62 66 69 72 74 76 77 76 76 75 74 72 70 68 66 63 60 57 54 51 49 46 44
 42 41 40 39 39 39 39 40 41 43 44 45 46 47 48 49 49 50 50 50 49 49 49 50
 50 50 51 51 52 52 52 53 52 52 50 49 47 45 43 40 38 35 33 31 30 30 31 32
 34 37 41 46 50 56 61 66 71 75 79 83 85 87 88 88 87 85 83 80 77 74 71 68]",3,2022-01-20 10:20:50,2022-01-20 10:20:52
0,"[   9  -21   -7   12   14   31   41    7   -9    9    9    4   38   65
   57   55   79  103  120  115   89   79  108  127   94   45   41   60
   60   57   57   53   50   60   74   72   77   72   43   43   69   72
   55   43   45   55   67   77   74   26  -19   -7   31   62   86  147
  349  678  820  441 -144 -275  -53   12  -12   41   62   41   50   69
   72   82   89   89   86   67   62   96  101   77   91  125  139  147
  156  168  197  229  234  229  226  205  147   74   14  -31  -62  -65
  -55  -55  -60  -65  -82  -96  -91  -72  -69  -72  -67  -53  -38  -36
  -28   -9   -2]","[29 28 27 25 24 23 22 21 21 20 20 19 20 21 22 25 28 32 38 43 50 56 62 67
 72 76 79 81 82 83 82 81 79 77 75 72 70 68 65 63 61 59 57 56 54 53 51 50
 49 47 46 45 44 43 42 41 40 39 38 37 36 35 34 33 33 32 31 30 29 28 27 26
 25 23 21 19 18 16 14 12 11 10  9  8  8  8  8  9 11 14 17 22 27 33 39 45]",3,2022-01-20 10:20:52,2022-01-20 10:20:54
0,"[-289 -238  -16   12   12   65   72   41   41   57   57   55   65   67
   60   62   69   69   62   77  120  139  113  103  137  171  205  231
  250  265  258  207  135   67   21   -4  -24  -36  -38  -45  -48  -33
   -2   14   -7  -24  -14  -12   -2   26   28   24   36   28   21   45
   69   72   74   77   74   77   79   62   43   50   65   77   79   74
   86  106   91   60   48   45   31   28   31   41   67   82   62   50
   79  110  106   91  110  130  115  137  316  627  808  538  -48 -287
  -67   53   14   53   77   45   50   74   62   57   72   79   91  110
  120  132  149]","[58 58 59 60 61 62 63 63 64 64 64 64 63 61 59 57 54 51 48 44 40 37 33 29
 26 22 19 16 13 10  8  5  5  5  5  5  5  5  5  5  5  5  5  6  8 11 14 18
 22 27 33 38 43 48 53 57 61 65 68 70 72 74 75 76 76 76 76 76 76 75 74 73
 71 70 68 66 64 62 59 57 55 53 51 49 47 45 44 42 41 40 39 37 36 35 34 33]",3,2022-01-20 10:20:54,2022-01-20 10:20:56
0,"[  82   74   67   60   45   41   50   72   86   67   50   77  106  205
  492  793  740  234 -219 -159   53   74   86  115   84   69   72   57
   57   89  118  110   72   53   79  110  125  130  123  123  137  154
  180  217  234  248  275  287  265  209  118   36   -2  -26  -28  -21
  -45  -62  -53  -36    0   12  -36  -72  -57  -31  -14  -36  -62  -38
  -14  -21  -14    0    4   16    0  -43  -53  -36  -33  -24   -4  -26
  -55  -41  -24  -38  -57  -55  -12   24   21    9    0  -12  -12  -12
  -16  -12    0   21   41   36   45   77   82  108  308  608  680  308
 -180 -246  -55]","[89 89 89 88 86 85 83 81 80 79 78 77 78 78 78 78 79 79 79 78 77 76 74 72
 70 68 66 63 61 58 56 53 51 48 45 42 39 36 33 30 27 25 22 19 17 14 12 11
  9  8  7  6  5  6  6  7  9 12 15 19 23 28 32 37 42 47 51 55 59 62 65 67
 69 70 72 73 74 74 75 76 76 76 76 76 75 75 74 72 71 69 68 66 65 63 61 59]",3,2022-01-20 10:20:56,2022-01-20 10:20:58
0,"[ -41  -21  -21   12   28    7   14   24    0    4   50   67   19  -19
   12   43   38   38   55   65   45   31   55   82   91  108  132   98
   36   31   69   91   96   98   96  118  178  217  195  180  241  400
  658  859  656   45 -304 -123   36  -16    2   72   77   57   50   57
  101  164  190  185  185  183  193  205  180  176  217  236  234  243
  258  282  294  260  226  234  226  147   43    0  -12  -38  -50  -60
  -86  -82  -43  -21  -31  -55  -57  -28   -4    4    7    0    9   14
   -4    2   48   74   60   41   38   43   67   94   86   53   26   12
   38   74   31]","[ 5  5  5  5  6  9 13 18 23 30 37 44 51 58 64 69 74 78 81 83 84 84 84 83
 81 79 76 73 70 67 64 62 59 57 55 53 52 51 50 50 49 49 48 48 47 47 46 45
 44 42 41 39 37 34 31 28 25 23 20 18 16 14 13 12 11 10 10 10 10 11 12 14
 17 20 24 29 35 41 48 55 62 69 75 81 86 90 93 94 95 94 93 92 90 87 85 82]",3,2022-01-20 10:20:58,2022-01-20 10:21:00
0,"[ 282  270  234  195  144   72   19    7    0    2   19   36   53   36
    2   12   28   -2  -50  -38   -4   -7  -16   -9    7   24   21    2
    9   28   28   21   26   33   38   36   53   65   53   45   57   50
   26   24   33   28   28   50   79   65   48   55   45   12  -16  -12
   19   36   21    2   -2   -7  -12    0   24   62  219  523  726  489
  -82 -337 -142  -24  -57  -28    0  -19   -4   21   26   36   50   48
   45   45   53   77   91   89  106  132  147  173  200  221  255  287
  282  270  279  267  207  120   50    9    0   -7  -21  -31  -28  -21
    0   28   24]","[58 58 57 57 56 54 53 51 49 47 45 43 40 38 36 33 31 29 26 24 22 21 19 18
 18 18 19 21 23 25 28 32 35 38 41 44 46 48 50 51 52 52 53 54 55 56 57 58
 59 60 62 63 64 66 67 68 70 71 73 74 74 75 74 73 71 68 64 61 56 52 48 44
 40 37 34 32 31 29 29 28 28 27 27 27 26 26 25 24 23 22 22 21 21 21 22 24]",3,2022-01-20 10:21:00,2022-01-20 10:21:02
0,"[   7   19    2   57   82   82   60   16   28   82  103  108  139  161
  132  108  127  147  149  161  195  224  229  226  236  255  284  299
  275  234  180   91   16   -7  -24  -36  -38  -33  -31  -38  -36   -2
    0  -50  -74  -53  -31    0   43   50   45   57   50   50   89  108
   94   82   67   43   41   48   50   55   65   82  103  108  101  113
  130  113   96   91  101  115  103   79   69   69   74   74   69   82
   94   69   57   74   96  108   96  113  255  533  772  646  103 -253
 -113   28  -21   -7   31    0    9   55   45   41   69   72   60   55
   16   14   62]","[65 63 62 60 59 58 58 57 57 56 56 55 54 53 52 51 49 47 46 43 41 39 37 34
 33 30 29 27 25 24 23 22 21 20 20 19 19 18 18 18 19 19 20 22 24 27 30 34
 39 44 50 55 61 66 71 76 80 83 86 88 89 90 91 91 91 90 90 89 88 87 86 85
 84 83 82 81 80 78 77 75 74 72 70 68 66 63 61 58 56 53 50 46 43 40 37 34]",3,2022-01-20 10:21:02,2022-01-20 10:21:04
0,"[  28   19   14   -2   -9   28   72   65   36   28   31   31   36   31
   28   50   62   62   62   53   57   55   41   45   69   79   57   33
   69  113   57  -16   12   62   67   72   57    2  -12   31   50   50
   62   60   57   77   96  103  154  354  678  817  468  -96 -248  -53
   12   -4   41   53   38   45   53   48   55   65   74   79   77   69
   62   60   72   79   96  127  144  149  168  190  205  214  207  188
  161  125   82   19  -41  -72  -91  -94  -67  -62  -74  -53  -28  -33
  -41  -26   -9  -14  -19   -4    7    9   12   12   31   48   50   43
   19   12   53]","[11 12 13 16 19 24 28 35 41 47 53 60 65 71 74 78 80 82 83 83 82 81 79 77
 74 72 69 67 64 62 60 58 56 55 53 53 51 51 50 50 49 50 49 49 47 47 46 45
 43 41 38 36 33 30 27 24 20 17 13 10  7  5  5  5  5  5  5  5  5  5  5  6
  8 11 14 19 23 30 35 42 48 54 59 65 69 73 75 78 79 80 80 81 80 80 79 79]",3,2022-01-20 10:21:04,2022-01-20 10:21:06
0,"[ 188  212  234  258  267  250  221  171   89   12    7   24    4  -24
  -43  -60  -60  -41  -16    2   -2   -4   -2   -7   -2   12   21   21
   24   26   24   21   26   41   65   77   67   50   36   55   67    7
  -16   43   74   48   36   72  106  108   86   77   89   84   69   89
  103   98  103  101   96  118  132  125  135  152  159  197  354  615
  798  637  132 -190  -67   67   38   53  103  101   96  115  120  125
  149  152  120   94   79   72  101  127  130  152  173  178  190  212
  195  166  200  248  246  217  180  118   48   -4  -28  -26  -28  -55
  -69  -57  -38]","[50 49 48 46 45 42 40 37 35 32 29 26 23 20 17 14 11  9  7  5  5  5  6  7
 11 15 20 26 33 40 48 55 63 69 76 81 85 88 91 92 93 92 91 89 88 85 83 80
 78 74 72 69 67 65 63 61 59 58 57 56 56 55 55 55 54 54 53 52 51 50 48 46
 44 42 40 37 34 31 29 26 23 20 17 15 13 11  9  7  6  6  5  5  6  7 10 13]",3,2022-01-20 10:21:06,2022-01-20 10:21:08
0,"[-195 -258  -48  -31  -43   14    9  -14    4   26   41   62   84   98
   98   79   62   79  123  142  144  164  176  190  241  291  277  265
  287  277  241  188  125   72   28   -2  -24  -33  -41  -43  -36  -33
  -38  -41  -31  -21  -26  -53  -60  -45  -31   -7    2  -31  -53  -38
  -24  -16  -12  -14   -7    2    2    2   14   26   26   33   43   24
   -4   19   55   55   53   72   55   12    4   16   19   45   62   21
    0   26   41   36   41   62   84  166  402  680  661  180 -291 -263
  -53  -31  -24   28   24    9   28   41   36   57   89   94   82   77
   96  132  166]","[65 63 62 61 61 60 60 59 60 59 59 59 59 58 58 56 56 55 54 53 52 51 51 49
 49 48 47 46 45 43 41 39 37 35 33 30 28 26 25 24 24 25 28 31 36 41 47 53
 60 67 73 79 84 88 92 94 95 95 94 93 91 88 86 82 79 76 73 69 66 63 61 59
 57 55 54 53 52 51 51 51 51 51 52 52 53 53 54 54 56 57 59 60 62 62 64 64]",3,2022-01-20 10:21:08,2022-01-20 10:21:10
0,"[  38   48   36   26    7   -2   28   67   53   33   45   21    9   62
   86   60   62   72   65   55   48   65   96   98   86   91  101  110
  130  207  412  682  760  395 -144 -238   -4   57   19   48   60   67
  115  130  120  127   84   21   60  183  263  253  180  118  127  173
  197  205  217  260  296  291  287  289  275  250  200   84  -33  -48
  -19  -38  -50  -31  -24   -7   19   19   16   16  -19  -28   24   26
  -26  -26   24   53   43   24   24   28   24   16   -2   -7   19   31
   24   28   31   16   12    7   -9  -19    9   41   48   28  -12  -26
    7   21   -2]","[14 18 24 30 37 44 50 58 63 69 74 78 81 83 85 85 85 84 82 81 78 76 72 70
 66 63 60 58 55 53 51 50 48 48 47 47 46 47 46 46 45 45 44 44 42 41 38 37
 34 32 28 26 22 20 16 13 10  7  5  5  5  5  5  5  5  5  5  5  5  6  8 11
 14 18 23 28 33 38 43 48 52 56 59 61 63 64 65 64 64 63 62 60 59 57 55 53]",3,2022-01-20 10:21:10,2022-01-20 10:21:12
0,"[ -43  -74 -101  -94  -84  -86  -77  -57  -45  -36  -33  -41  -36  -19
  -21  -38  -33  -26  -41  -43  -24  -16  -14   -7   -9   -9   -7   -2
   12   24   14   -4  -16  -19  -19   -4    7   -4   -7   28   57   53
   62   65   21    0   21   36   31   28   31   31   48   94  147  277
  530  714  494  -67 -342 -132   19   -9   28   67   65   84   86   57
   24   12   65  130  139  135  161  176  154  144  159  180  200  217
  231  253  282  296  301  299  248  176  137   98   50   21   -2  -38
  -41   -9   -2  -21  -14    0  -12   -9    9   16   26   53   82   89
   48   19   45]","[20 19 17 15 14 12 10  9  7  5  5  5  5  5  5  5  6  8 12 15 20 25 31 37
 43 49 54 59 64 68 71 74 75 76 77 76 75 74 73 71 69 66 64 62 61 59 57 56
 55 54 53 52 52 51 51 50 50 50 49 49 48 48 47 46 46 44 44 42 41 40 38 37
 35 33 32 30 29 27 26 25 24 23 23 22 22 21 21 21 22 22 24 25 28 30 34 37]",3,2022-01-20 10:21:12,2022-01-20 10:21:14
0,"[  33  110  110   82   89  108  120  125  127  132  132  123  135  171
  188  171  166  226  287  282  289  328  311  299  342  374  352  284
  193   96   16    2   26    7  -33  -36  -24  -45  -67  -67  -45   -4
   16   -4  -19  -21  -36  -21   12   16   24   53   41   14   31   41
   38   65   77   45   31   48   45   21   28   55   53   50   72   69
   28    7    7   -7   -7   14   19    0  -14    4   26   21   16   33
   77  209  489  728  535  -26 -308 -142  -19  -48  -26    7    7   16
   31   41   38   26   38   65   72   86  106   96   84   79   89  144
  178  168  197]","[65 64 63 62 61 60 60 59 58 58 57 56 56 55 54 53 52 51 50 48 46 44 42 40
 38 35 32 29 26 24 21 19 18 18 19 20 23 27 31 36 41 47 53 58 64 68 73 76
 79 81 82 83 84 84 83 82 81 79 77 75 73 72 70 68 66 65 64 63 62 62 61 61
 60 60 60 59 59 58 57 57 55 54 53 51 50 48 46 44 42 40 37 35 33 31 29 27]",3,2022-01-20 10:21:14,2022-01-20 10:21:16
0,"[  31   36   26   31   53   36   -9   -7   33   50   41   31   28   43
   67   62   65  113  267  554  752  523  -53 -330 -120   28   14   74
  118   94   98  113  106  101  101  101   98   94  103  139  164  154
  135  113  120  183  250  279  267  265  306  320  294  260  207  130
   50  -12  -45  -48  -41  -33   -4   21    2  -36  -41   16   45  -21
  -33   38   62   60   62   33   26   65   69   53   60   72   74   84
   94  101  106  108  106   94   86   98   91   72   74   77   82   91
   94  106  115   89   67   74   79   41    2   28   67   67   62   62
   50   62  106]","[76 77 79 80 80 79 79 78 76 75 73 71 69 67 66 64 63 61 60 59 58 57 56 56
 55 54 54 53 53 52 51 50 50 49 48 47 46 44 43 42 41 40 39 38 37 36 35 34
 32 31 29 28 27 26 24 23 22 23 23 25 26 29 33 37 42 48 53 60 65 71 76 80
 83 87 88 89 89 89 88 86 84 82 79 77 74 72 69 67 65 63 62 60 59 59 58 58]",3,2022-01-20 10:21:16,2022-01-20 10:21:18
0,"[ -50   -4   14   -2   -9   -4   -9  -12    0    9   14   16   19   33
   41   19   24   67   77   43   43   60   24    4   60   91   60   26
    7   21   86   86   21   38   84   60   45   69   67   53   55   33
    4   26   38   -9  -21   12    4    9   62   86   79  200  497  711
  494  -43 -287 -101    7  -65  -43   41   57   43   43   48   50   50
   33   16   26   67   98   98   96  106  110  113  130  168  209  231
  246  263  265  246  229  202  142   57   -4  -24  -26  -41  -38   -4
   21   19    7    7    7    4   16   31   33   31   21   36   62   45
   26   38   43]","[52 50 47 44 41 38 34 31 27 23 19 16 13 10  9  8  9 10 13 17 21 26 32 37
 43 49 55 59 64 68 72 74 77 79 81 81 83 82 83 82 82 81 80 78 77 75 74 71
 70 68 67 64 63 61 61 59 58 56 56 54 53 51 50 48 46 44 42 39 37 34 32 29
 27 24 22 19 17 14 12  9  8  6  5  5  5  5  5  5  5  5  5  6  8 11 14 18]",3,2022-01-20 10:21:18,2022-01-20 10:21:20
0,"[ 728  294 -246 -299  -55    4  -28    2   26   33   67   82   38    9
   45   79   79   82  103  123  125  125  149  183  202  224  246  253
  263  277  287  304  316  277  200  127   74   38   16   -7  -33  -33
  -12   -4   14   28  -19  -62  -33    0    4    4    2   16   36   50
   62   67   72   77   74   74   84   77   67   82   98  103  101   96
  106  115  123  132  139  135  125  120  110   98   98  108  103   94
   86   72   60   79  108  135  195  369  661  815  489  -65 -185    7
    4  -28   72  106   28  -14    9   50   79   86   84   98   94   41
   19   53   74]","[53 51 50 50 49 48 48 47 47 46 45 44 43 42 40 39 37 35 32 31 28 26 25 23
 21 20 19 18 17 16 16 15 15 15 15 16 17 19 21 24 28 33 38 44 50 56 62 68
 73 78 82 85 88 90 90 91 90 90 88 87 85 84 82 81 79 78 77 76 75 75 74 74
 73 72 72 71 70 69 67 66 64 63 60 58 56 54 51 48 45 43 40 37 34 32 28 26]",3,2022-01-20 10:21:20,2022-01-20 10:21:22
0,"[  86  115   82   62   74   72   45   24   36   57   74   69   14  -19
    9   28   31   57   98  243  538  728  482  -45 -246  -55   38   -4
   16   45   36   45   79   96   74   53   65   86   91   96  125  149
  159  156  152  156  166  176  188  212  226  214  202  207  183  125
   62    7  -38  -62  -74  -84  -86  -89  -94  -84  -69  -57  -45  -43
  -48  -43  -38  -41  -31   -9   14    7  -41  -48   -9    0   -2   19
   26   19   36   55   60   69   60   43   57   74   82   86   89   91
   94   91   91   94   89   82   69   67   72   67   65   72   65   55
   79  135  287]","[91 94 95 95 94 93 91 89 86 83 79 76 72 68 65 62 58 56 53 51 49 48 46 45
 44 44 43 43 42 42 42 42 41 41 40 40 39 39 37 37 35 34 31 30 27 26 23 21
 18 17 14 12 10  9  6  6  5  5  5  7  8 12 15 21 26 34 40 48 54 61 67 72
 76 80 82 84 84 85 84 83 81 80 78 77 75 74 72 71 69 69 67 67 65 65 64 64]",3,2022-01-20 10:21:22,2022-01-20 10:21:24
0,"[  50   43   38   38   41   53   60   53   38   38   41   36   33   33
   33   45   53   65   94  106   89   62   45   53   77   94   96  101
  106  101   96   98   96   98  118  190  410  738  859  482  -91 -202
   33   94   55   98  103   82  106  132  139  144  132  130  147  159
  159  152  164  188  193  188  209  229  241  279  323  325  318  318
  282  214  159  106   53    7  -24  -38  -45  -43  -28  -38  -69  -67
  -33  -14  -12  -14  -12   -4   -9  -14    4   19    4   -4    2   -9
  -21    9   45   48   36   28   31   28    9    7   19   14    2   12
   19   19   24]","[27 35 42 51 58 67 75 83 89 95 95 95 95 95 95 95 94 93 91 90 88 87 85 83
 81 80 78 77 75 75 73 73 72 72 71 71 70 70 69 69 67 67 65 64 63 61 59 58
 55 53 51 49 46 44 41 39 36 33 31 28 26 24 22 20 19 18 18 20 21 24 27 32
 37 42 48 53 58 64 68 71 74 76 77 78 78 77 76 75 74 72 71 69 68 67 66 65]",3,2022-01-20 10:21:24,2022-01-20 10:21:26
0,"[ 202  144   65    0  -28  -45  -62  -72  -65  -41  -53 -101  -96  -62
  -79 -125 -142 -120  -74  -43  -50  -65  -43    0    9   -7   -7   -2
   -2   -4   -9  -16  -16   -4    0   -4   -4    7   -7  -21    0   16
   12   16   33   41   33   33   36   33   31   43   57   55   48   50
   65   69   60   62   62   53   38   43   72  101   94   48   19   41
   65   65   82  132  250  506  784  733  202 -287 -212   31   33   14
   62   72   69   94  115  120  125  125  130  139  156  176  173  159
  178  212  224  241  260  265  284  313  337  359  349  294  238  195
  142  101   72]","[28 26 23 21 18 15 13 10  8  5  5  5  5  5  5  5  5  5  5  5  5  5  5  5
  5  5  5  5  5  5  6  7  9 12 15 19 23 28 33 38 42 47 51 55 58 61 62 64
 64 65 65 64 63 63 61 60 59 58 56 56 54 54 53 53 52 52 51 51 50 50 49 49
 48 48 47 46 45 45 44 43 42 42 41 41 40 39 38 38 37 36 35 34 33 32 30 29]",3,2022-01-20 10:21:26,2022-01-20 10:21:28
0,"[ 101  103   84   62   60   65   79  103  125  120  106  171  400  694
  762  366 -149 -197   19   28  -21   26   33    4   24   53   69   65
   43   43   41   26   38   60   65   72   94  115  139  152  159  180
  221  248  248  238  229  188  110   33   -9  -41  -69  -84  -77  -60
  -53  -57  -67  -74  -67  -48  -26  -12    9   24    9  -12   -9    0
    4    4   -2   -4  -14  -26  -16   -2    2    7    2   -4   -2    2
    4    9    9    4   12   28   33   38   45   43   28   12   12   31
   43   19   -2   26   60   55   43   53   57  106  299  581  704  398
 -152 -308  -72]","[75 74 72 71 68 67 65 63 61 59 57 56 54 53 52 51 50 49 48 47 46 45 44 43
 42 41 39 38 36 35 34 33 31 30 29 28 27 26 24 23 21 20 18 16 14 12 10  8
  6  5  5  5  5  6  8 11 15 20 25 31 37 43 49 54 59 63 67 69 71 73 73 73
 73 72 71 70 68 67 66 65 65 64 63 63 63 62 62 62 62 62 61 61 60 59 58 57]",3,2022-01-20 10:21:28,2022-01-20 10:21:30
0,"[  12   45   72   67   53   57   65   62   67   77   84   82   77   69
   72   72   62   79  113  110   77   74   86   77   72   96   96   74
   62   67   89  118  130  101   53   60  108  115  108  137  212  405
  704  820  424 -168 -265   -4   65   33   89  110   86   96  108  101
  106  115  118  127  139  156  161  161  168  180  195  209  258  320
  320  291  287  308  359  381  325  243  156   65    4    0   31   55
   36   -2  -12   -9  -24  -38  -16    2    2   21   43   36   28   38
   38   21   26   33   24   21   26   14    2    9   38   62   60   53
   55   53   45]","[ 5  5  5  5  6  7  9 12 16 20 25 29 34 39 44 48 52 56 59 61 63 64 65 65
 65 65 64 63 62 60 59 57 56 54 52 51 49 48 47 46 44 44 43 43 42 42 42 41
 41 41 41 40 40 39 38 37 36 35 34 33 31 30 28 27 25 24 23 21 20 19 18 18
 18 18 19 21 23 26 28 32 36 40 44 48 52 55 58 61 63 64 65 66 66 66 65 64]",3,2022-01-20 10:21:30,2022-01-20 10:21:32
0,"[ 275  250  183  108   48    0  -41  -62  -53  -28  -28  -43  -31  -12
  -31  -57  -65  -55  -38  -26  -21  -21  -26   -4   21    7   -7    0
    7    4    9   12    7    2    0   -4    7   21   19    7   12    9
   -2  -12  -12    2    9   19   50   50   21   14   21   36   48   31
   -9  -26   -9   16   48   74  152  354  593  610  202 -299 -318  -60
   -4  -26   26   36   26   45   65   65   60   67   69   69   74   96
  127  137  115  101  123  173  214  234  270  304  291  282  294  272
  229  171   79    4  -19  -33  -48  -50  -45  -33  -33  -53  -53  -28
  -12   -7   -7]","[42 41 40 39 38 38 37 36 35 34 33 32 30 29 28 27 26 26 26 27 28 30 33 36
 40 44 48 53 57 61 65 68 71 73 75 76 77 77 77 77 76 75 73 72 70 69 67 66
 64 63 61 60 59 58 57 56 56 55 55 55 55 55 54 55 54 55 54 55 54 54 54 54
 54 54 53 53 53 53 53 53 53 54 54 54 54 54 54 54 53 53 52 51 50 50 49 49]",3,2022-01-20 10:21:32,2022-01-20 10:21:34
0,"[  55   62   24    9   67   96  106  255  571  793  591   43 -272 -147
  -14  -26    2   62   72   57   57   72   86   84   82   96  108  115
  135  142  125  130  159  185  200  212  229  253  272  279  284  287
  272  226  159   82   24   -2  -26  -31  -12  -28  -53  -36  -16   -4
   19   28   38   55   45   38   67   86   50   12    0   14   48   48
   38   79   98   48   14   24   31   36   50   50   45   53   62   67
   65   62   69   79   65   38   33   41   36   38   43   41   28   33
   57   69   45   50  132  352  653  733  330 -197 -263  -48  -16  -48
   -4    7   14]","[70 69 68 67 66 64 63 62 61 60 59 57 57 56 55 54 53 52 50 49 48 47 45 44
 42 41 39 38 37 35 34 32 30 29 27 26 24 23 21 19 17 15 13 12 10  9  8  9
  9 11 13 16 19 24 28 33 37 42 47 51 55 58 60 63 64 65 66 67 67 67 67 67
 66 66 65 65 64 63 63 62 61 60 60 59 58 57 56 56 55 54 53 52 51 50 48 47]",3,2022-01-20 10:21:34,2022-01-20 10:21:36
0,"[  28   38   16    2   33   60   38   21   24   24   24   26   28   28
   28   31   36   38   33   33   36   38   38   33   33   38   33   26
   21   21   36   62   65   43   31   31   21   14   33   38   26   33
   53   48   33   41   62  118  301  586  728  451 -103 -318  -86   43
   -7   12   48   38   41   45   33   36   55   65   65   72   89   98
  101  106  106  113  147  200  260  265  217  217  248  236  258  289
  185   62   55   53    4  -14  -12  -21  -21  -16   -9    0    2    2
    7   14   21   28   28   26   31   38   53   62   62   50   28   33
   57   69   72]","[15 16 17 18 20 21 24 27 31 34 38 42 46 49 53 56 59 61 64 65 66 67 67 67
 68 67 67 66 66 64 63 62 61 59 58 57 56 55 54 53 51 50 49 47 46 44 43 41
 39 37 36 35 34 33 32 31 30 30 29 29 28 27 26 26 24 23 21 20 17 16 13 11
  8  6  5  5  5  5  5  5  5  5  5  5  5  5  6  8 10 13 16 20 24 29 34 40]",3,2022-01-20 10:21:36,2022-01-20 10:21:38
0,"[  53  108   86   65  101  120  118  137  149  152  152  149  159  171
  180  195  224  250  231  195  205  265  311  296  277  294  301  260
  178   96   38  -14  -45  -26  -24  -41  -36  -43  -45  -24   -9   -7
    2   14   19   19   33   48   24    0   24   45   31   21   26   36
   50   48   38   48   53   45   41   43   38   31   26   21    9    4
   16   26   26   33   31   16   12    9    2   -7  -14  -24  -24   -4
   -7  -38  -45  -21    7   62  236  538  723  453 -132 -361 -135  -12
  -69  -62  -16    2   21   45   82   89   24  -19   36   94  101  108
  125  137  144]","[63 62 62 62 62 61 61 61 60 59 58 57 55 53 51 48 46 43 40 36 33 30 27 24
 21 19 16 14 12 10  8  7  5  5  5  5  5  5  5  6  8 11 14 18 23 28 34 39
 45 51 56 61 65 68 71 73 74 75 75 74 74 72 71 70 69 67 66 65 64 63 62 61
 61 60 60 59 59 58 58 57 56 55 54 53 52 51 50 49 48 47 46 44 43 42 41 40]",3,2022-01-20 10:21:38,2022-01-20 10:21:40
0,"[  91   77   74   74   69   74   98  101   91   94   84   62   53   50
   36   26   41   69   86   67   33   16   19   33   72  214  497  762
  673  115 -313 -183   33   21   24   79   91   91   89   82  106  127
  110   94  106  120  127  144  176  209  224  236  255  246  221  243
  296  335  352  369  359  289  200  144   96   41   21   33   36    9
  -19  -33  -31   -9    9    9   -2  -19  -24  -16  -12   -2   12   16
   14   21   28   28   28   26   28   53   72   62   48   57   65   55
   48   60   69   60   57   62   50   33   26   14    2   -4  -14  -16
   -9    7   19]","[44 50 55 60 65 69 72 75 77 79 80 81 81 80 80 79 77 76 75 73 72 71 69 68
 67 66 65 65 64 64 63 63 63 62 62 61 61 60 59 58 57 55 54 52 50 48 46 43
 41 39 36 34 31 29 26 24 22 20 18 17 17 16 17 18 20 23 26 30 34 39 44 49
 54 58 63 66 69 72 74 75 76 75 75 74 73 71 69 67 65 63 61 59 58 56 55 54]",3,2022-01-20 10:21:40,2022-01-20 10:21:42
0,"[ -62  -72  -69  -60  -60  -60  -53  -53  -53  -38  -33  -36  -31  -21
  -26  -28  -26  -24  -28  -33  -19   -7  -21  -24   -4    4   19   50
   53   26   12   12    4   12   33   50   53   50   45   36   36   60
   84   89  139  332  612  714  381 -156 -294  -53   48   16   55   82
   62   69   91   86   82   89   89  120  166  142  110  137  154  156
  164  168  180  202  214  229  250  260  265  267  243  178  120   77
   43   21   14   21   24    7    7   28   19    2    7   16   28   38
   50   67   74   67   62   69   74   82   89   72   55   91  130  115
   98  106   96]","[22 21 19 17 16 16 16 16 18 20 24 28 34 39 45 52 58 65 71 76 81 85 88 90
 92 92 92 91 90 89 86 84 82 80 78 76 74 73 71 71 70 70 70 70 70 70 70 70
 70 70 69 69 67 66 65 63 61 59 57 55 52 50 47 44 41 39 36 34 32 30 29 27
 26 25 25 24 24 23 23 24 25 26 28 31 34 38 42 46 51 56 60 64 68 71 74 76]",3,2022-01-20 10:21:42,2022-01-20 10:21:44
0,"[ 139  137  120  132  176  207  202  178  176  195  212  234  270  304
  311  291  289  306  323  328  287  212  139   69   12  -19  -36  -48
  -43  -26  -26  -43  -53  -55  -50  -21    4   16   24   21    2    2
   16   19   21   12   -4   -2   -2  -24  -14   28   43   16    2   16
   21   14   14   16   19   24   31   41   41   38   41   45   38   26
   28   33   19   -7  -16  -14   -2    9   19   14   28  176  468  694
  554   31 -335 -214  -45  -60  -38    9    0   12   50   53   38   50
   67   60   57   79   86   72   82  132  176  190  202  219  234  250
  267  277  282]","[59 58 58 57 56 55 54 52 51 50 48 47 45 44 42 41 39 38 36 35 33 32 30 28
 27 26 25 25 25 26 28 31 34 38 43 48 53 59 64 69 74 78 81 84 86 87 87 87
 86 84 82 81 78 76 73 71 69 67 65 64 62 61 59 59 57 57 56 55 54 53 53 52
 51 50 49 48 47 45 44 43 41 40 39 37 36 35 34 32 31 30 29 28 28 27 26 25]",3,2022-01-20 10:21:44,2022-01-20 10:21:46
0,"[  55   50   50   60   55   45   50   53   55   67   82   89  137  320
  598  714  393 -164 -316  -74   28    4   48   67   48   65   79   77
   89  101  106  123  142  147  142  139  152  152  139  149  183  221
  246  260  277  291  306  301  267  214  154  106   79   67   45    2
  -31  -31  -26  -19   -4    4    4    2   14   41   50   38   36   24
    4    4   19   24   14   12    2  -12   -2   24   31   21   21   19
   16   19   16   12   14   16   16    9    7   19   33   65  101   86
   48   36   28   26   38   41   33   33   36   41   48   53   62   94
  214  482  748]","[67 68 68 69 68 68 68 67 66 66 65 65 64 64 63 63 63 63 63 63 62 62 61 60
 59 58 56 55 54 53 51 50 49 48 47 46 45 45 44 43 42 41 39 38 36 35 33 31
 29 27 24 22 20 18 16 14 13 12 12 13 14 17 20 24 29 34 39 45 50 56 61 65
 69 71 74 75 75 75 75 73 72 70 68 66 64 62 60 58 56 54 53 52 51 51 50 50]",3,2022-01-20 10:21:46,2022-01-20 10:21:48
0,"[ -21  -16  -24  -16    4   -2  -24  -21  -12  -16  -19  -14   -4    0
   -4   -7    2    2   -7   -4    7    7    7    0  -12   -4   12   16
    7    2   16   21   24   36   41   57  123  306  612  798  523  -74
 -335 -127    9  -24    7   60   50   45   60   67   72   84   91   86
   91  110  118  110  125  142  156  183  207  217  221  231  238  267
  311  311  258  188  130   91   43  -21  -57  -50  -33  -19  -12  -14
  -16  -26  -26    0    9    2    9    4  -16  -19   -2    0    4   26
   33   26   33   43   48   38   21   31   60   60   48   84  110   77
   60   82   94]","[ 6  8 11 15 20 25 31 38 44 51 57 63 68 73 77 80 83 84 85 86 86 85 85 83
 82 80 79 77 75 73 72 70 68 67 66 64 63 61 60 59 58 56 55 53 51 50 48 46
 45 43 41 40 38 37 36 35 34 33 33 32 32 32 31 31 31 30 31 31 32 33 35 38
 42 46 51 57 63 69 76 82 88 93 95 95 95 95 95 94 93 91 89 86 83 80 76 73]",3,2022-01-20 10:21:48,2022-01-20 10:21:50
0,"[ 180  205  231  253  275  301  308  294  270  229  171  110   57   31
   24    7  -28  -57  -55  -41  -36  -24  -14  -19  -24  -12    0    2
    4   16   26   24   24   31   45   45   48   65   74   55   16   -7
   -4   12   31   38   36   24    9   14   28   38   41   48   65   67
   45   36   41   53   72   84   72   67   60   43   65  103  101  106
  231  513  781  694  173 -238 -154   16    4   16   65   48   36   62
   72   69   72   67   65   82   91   82   86  110  118  123  144  166
  180  202  219  229  253  275  265  234  200  147   79   28   -9  -41
  -45  -24   -4]","[46 45 44 43 42 41 40 39 39 38 38 38 38 37 37 36 35 34 34 33 33 33 34 34
 36 38 42 45 49 52 56 59 63 66 69 70 72 73 73 73 72 71 70 68 66 64 62 60
 58 56 54 53 51 50 49 48 47 46 46 46 45 45 45 45 44 44 43 43 42 41 40 39
 38 37 36 35 34 34 33 32 31 31 30 29 28 27 26 24 23 22 21 20 20 21 22 24]",3,2022-01-20 10:21:50,2022-01-20 10:21:52
0,"[  12   33    4   -7   24   43   43   57   96  127  103   62   91  161
  180  161  190  234  243  248  255  258  270  243  171   96   38    0
  -16  -26  -31  -36  -43  -41  -31  -24  -21  -14   -7   -4    0    4
    4    4    7   14   24   28   33   36   26   14   24   26   24   43
   74   79   62   50   33   21   28   38   50   74   86   62   48   55
   60   72   91   82   62   77   94   89   98  123  132  137  248  518
  745  632  139 -238 -130   65   41   21   60   67   79   96   79   65
   67   65   69   84   96  110  115  101  101  123  152  176  195  219
  243  250  229]","[48 46 46 45 45 44 45 44 45 45 45 44 43 42 41 39 37 35 32 30 27 25 22 20
 18 16 14 12 11 10  9  9 10 10 12 14 18 22 27 32 39 45 52 59 66 72 78 84
 88 91 94 95 95 94 93 92 90 88 86 85 83 82 81 80 79 78 78 77 76 75 74 73
 72 70 69 67 65 63 61 59 57 55 53 50 48 45 43 40 37 35 32 30 27 24 21 19]",3,2022-01-20 10:21:52,2022-01-20 10:21:54
0,"[  41   38   57   48   28   45   74   67   36    7    0   38   67   43
   24   41   48   45   98  267  550  764  583   21 -284 -108   41   14
   24   41   21   26   28   41   91  108   67   65   91   79   65   84
  101  101  118  144  164  193  224  236  236  241  246  236  207  164
  101   24  -36  -67  -89 -110 -118 -108  -98  -91  -74  -62  -62  -62
  -53  -28    0   12   14   12   21   43   48   38   19   -2   19   67
   65   41   38   33   26   28   33   53   82   86   82   94   86   65
   62   65   67   67   55   36   50   84   77   62   86  118  197  460
  762  692  139]","[60 63 65 66 67 67 67 66 65 63 61 59 57 54 52 50 48 46 45 43 43 42 42 42
 42 42 42 42 43 43 42 42 41 40 38 36 34 32 29 26 23 20 16 12  8  5  5  5
  5  5  5  5  5  6  8  9 11 13 16 19 22 25 30 34 38 43 48 53 57 61 65 69
 72 74 76 77 78 78 78 77 77 76 75 73 72 71 69 68 67 66 65 64 63 62 61 60]",3,2022-01-20 10:21:54,2022-01-20 10:21:56
0,"[  41   14   19   28   16    9   36   57   28    7   33   45   48   67
   74   84  101   94   65   41   41   53   48   33   31   31   38   57
   65   60   57   74  106  219  482  735  649  159 -217 -127   41   53
   67   86   86  101   72   33   74  127  132  132  120   96  113  142
  144  152  185  212  200  185  200  238  263  265  270  248  195  156
  120   50  -14  -45  -60  -79  -69  -43  -33  -21   -4   -2    0   12
   12    4    4    7   -2   -7    0    7   16   31   28   24   26   12
   -4    4   26   26   -2  -19   -7    0   -9    2   24   31   50   62
   48   28   24]","[21 24 28 33 39 45 51 58 64 70 76 81 85 88 91 93 94 94 93 92 91 88 86 84
 81 79 76 74 73 71 70 69 69 69 70 70 72 72 73 73 73 73 72 70 68 65 63 59
 56 52 49 45 41 37 34 31 27 25 22 20 19 18 17 16 16 16 17 18 19 21 23 26
 30 34 38 43 48 53 58 63 67 70 73 75 76 77 77 77 76 75 74 73 72 71 70 68]",3,2022-01-20 10:21:56,2022-01-20 10:21:58
0,"[ 263  188  144  108   55    0  -38  -43  -36  -43  -53  -50  -45  -48
  -41  -16   -7  -14  -14   -9  -16  -21  -21  -19   -7    0    0    9
   31   33   14    9   24   28   21   14   14   33   41   41   53   57
   60   62   28    7   31   48   38   43   60   45   33   53   72   84
  137  313  624  791  480 -101 -296  -84   31   21   60   84   72   74
   62   53   69  101  110  120  130   91   57   89  149  178  180  197
  219  234  267  282  260  267  287  265  229  168   79   21    9  -16
  -57  -57  -33  -41  -48  -26   -2   -2   -7   -7   -7    2   26   45
   72   84   33]","[23 21 19 16 14 13 11 11 10 11 12 15 18 22 27 32 38 44 50 56 62 68 72 77
 80 84 86 88 90 91 91 91 90 90 88 87 84 82 79 76 72 69 65 61 58 55 52 50
 48 47 46 45 45 45 45 46 46 47 47 48 49 50 50 51 50 51 51 51 50 50 49 49
 47 46 45 43 42 40 38 38 36 36 36 37 38 40 42 46 49 54 58 63 68 73 77 82]",3,2022-01-20 10:21:58,2022-01-20 10:22:00
0,"[ 132  125  127   91   50   74  137  166  176  185  161  144  173  207
  229  246  234  207  217  255  289  318  332  323  270  166   91   57
    4  -21  -24  -36  -38  -36  -36  -33  -36  -38  -16    9   19    7
  -21  -21   19   36   14   26   53   65   38  -26  -33   28   38   14
   14    4   -2    4    9    9    7   -2  -14  -16   16   41   14   -2
   12    7   -9  -14   -2    4    9   16   19   38   69   67   57   72
   62   16   19   48   38   45   77   67   60  103  166  328  629  808
  554   -4 -282 -120   16   16   62   94   82   89   82   69  101  113
   82   94  171]","[59 59 60 60 60 60 61 61 61 61 61 60 60 59 58 57 55 54 52 49 47 44 41 38
 35 32 29 26 23 19 16 13 10  7  5  5  5  5  5  5  5  5  5  5  5  6  7  9
 12 15 19 23 27 31 36 39 43 46 49 51 53 54 56 56 56 56 56 56 56 55 55 54
 54 53 53 52 52 51 51 50 50 49 49 48 48 48 48 48 47 47 47 48 48 48 48 48]",3,2022-01-20 10:22:00,2022-01-20 10:22:02
0,"[  -2    7   41   48   16   12   55   82   57   28   45   94   84   31
   43   89   69   45   55   69   89   94   89   96  110  154  304  612
  827  499 -149 -325  -53   33  -45    7   79   38   24  108  118   57
   79  123  120   91   60  103  185  193  166  166  193  214  229  272
  291  279  296  301  265  263  304  246  106   16   -9    9   43   31
   33   86   94    4  -53    9   72   72   79   57   -4  -28   21  118
  168   57 -110  -82   69   82   16   16   28   12    2    9   28   31
   24   36   38   28   36   45   41   28   26   43   69   57   26   28
   74   98   55]","[47 50 54 56 58 60 61 62 62 62 61 60 59 58 56 55 54 53 52 51 50 50 50 49
 49 50 50 50 50 50 50 50 50 49 49 48 47 45 44 43 41 40 38 37 36 34 34 32
 32 31 30 29 28 27 26 26 25 25 26 26 28 30 33 35 39 42 46 49 52 55 57 59
 61 61 62 62 61 60 59 57 55 53 51 49 47 44 42 40 38 36 35 33 32 30 29 28]",3,2022-01-20 10:22:02,2022-01-20 10:22:04
0,"[   4  -16  -21  -24  -26   -9   21   24    2   26   24  -26  -24   -2
    0    4  -12  -33  -36  -31  -24   -7   14   16    4    2    9    7
    9   16    0  -12  -28  -57  -50  -14    2   12   14    7   16   67
  234  538  726  470 -106 -359 -154  -14  -19   -2  -38  -53   26   69
   67   65   62   60   53   48   57   65   74  130  188  178  147  161
  190  209  226  255  282  282  263  221  176  142   94   53   48   28
  -48  -89  -50  -16  -24  -36  -28  -14   -2   24   14  -31  -28    9
   19   21   41   57   48   43   53   41   38   60   55   55   79   72
   48   41   57]","[12 11  9  8  8  8  8 10 12 15 19 24 29 34 40 46 51 56 60 64 67 70 71 72
 72 72 71 70 69 68 67 65 64 63 61 60 59 58 57 57 56 55 54 53 52 51 50 49
 48 46 45 43 42 40 39 37 35 34 33 31 30 29 28 27 26 26 25 24 24 23 23 22
 21 20 19 18 17 16 15 15 15 15 16 19 21 25 29 35 40 46 52 58 64 69 74 78]",3,2022-01-20 10:22:04,2022-01-20 10:22:06
0,"[ 147   79   60  113  142  108   67   74  139  195  200  197  207  212
  246  301  308  306  328  340  340  328  258  144   91  123  123   53
  -16  -38  -28  -38  -55  -53  -31   43   94   41    9   48   62   67
  110  120   33   -2   89  125   82   86   82    0  -45   12   69   77
   55    2    4   79  101   50   21   48   50   19    9   16   45   86
   74   26   14   38   50   60   79  110  173  393  752  849  412 -152
 -250  -53    0    2   50   26  -24  -12   24   36   43   55   72   91
   86   74   82   84   91  115  137  139  135  142  164  195  221  248
  255  224  168]","[56 54 53 50 48 46 43 40 37 34 32 29 26 23 21 19 17 16 15 14 15 17 19 22
 26 30 36 41 46 51 56 61 65 68 71 73 74 75 75 75 74 74 73 72 71 70 70 69
 69 68 68 67 67 66 65 64 62 61 58 56 54 51 48 46 43 40 37 34 31 29 26 24
 21 19 17 15 13 11  9  7  5  5  5  5  5  5  5  5  5  5  6  8 10 14 18 24]",3,2022-01-20 10:22:06,2022-01-20 10:22:08
0,"[   2   50   77   60   21   43   86   89   60   57  120  176  154  130
  154  171  180  202  229  250  265  272  277  284  296  294  255  200
  139   82   33    2   19   36   -4  -41  -41  -41  -16   26   16  -33
  -43   -7    0   -9    7   24   36   57   53   28   26   48   57   53
   69   94   89   65   53   62   79   96  110   98   86   91   82   77
   91  108  118  120  120  123  125  120  120  166  320  586  842  803
  294 -180 -118   74   50   48   96   67   55   86   96  106  130  127
  110  115  135  152  171  178  171  180  197  207  226  248  253  250
  243  246  282]","[52 51 50 50 49 48 47 46 45 43 42 41 39 38 36 34 32 31 29 27 25 24 22 22
 20 20 19 19 19 19 19 21 22 24 27 30 34 39 44 49 55 61 66 72 77 82 86 89
 92 94 95 95 95 94 93 91 89 87 85 82 79 77 74 71 69 66 64 62 61 59 58 57
 56 55 54 53 52 51 50 49 48 47 46 44 43 42 40 38 36 34 31 29 26 23 20 17]",3,2022-01-20 10:22:08,2022-01-20 10:22:10
0,"[ -48 -311 -115    2  -36   -9   24   36   38    4  -21    9   50   53
   60   82   77   65   86  110  132  161  173  176  197  217  229  258
  277  265  226  171  115   62   12  -28  -48  -45  -55  -82  -96  -86
  -69  -55  -55  -50  -33  -41  -67  -69  -50  -28  -12   -2    7    0
  -31  -43  -28  -33  -38  -21   -4    2    9   21   14   -4    2   19
   16   24   57   69   28  -14  -31  -14    9   16   19   28   33   45
   79  108  159  337  624  769  472 -106 -296  -55   43  -28    4   86
  101   89   72   53   67   86   67   60   94  108   84   94  130  149
  164  185  202]","[60 59 59 59 58 58 58 58 57 57 57 57 56 56 55 54 53 52 50 48 46 44 42 39
 36 32 29 25 22 18 15 12  9  7  5  5  5  6  8 12 16 21 28 34 42 49 57 65
 72 79 85 90 95 95 95 95 95 94 93 91 89 87 84 80 77 74 71 68 66 63 62 60
 59 59 59 59 60 61 62 63 64 64 64 64 64 63 62 60 58 56 54 52 50 48 46 43]",3,2022-01-20 10:22:10,2022-01-20 10:22:12
0,"[  12   26   28   21   50   89   62   -7   -7   33   33   19   38   67
   67   65   69   57   48   57   62   67   74   67   57   69   82  108
  127  142  231  451  711  719  255 -226 -197   26   43   38   89   94
   74   91  147  173  127   86   91  106  144  200  197  161  190  258
  272  236  226  253  270  289  304  306  304  279  246  200  115   38
   -4  -36  -31    2    0  -21  -19  -21  -36  -19    2    0    2   16
   14    4   14   28   24   26   60   74   36  -16  -12   45   43   14
   45   77   65   55   41   31   55   55   28   33   50   45   41   60
   60   33   26]","[68 74 79 83 85 88 89 90 90 90 88 87 85 83 81 79 77 75 73 71 70 69 67 66
 65 65 64 63 63 62 62 61 60 59 58 57 55 54 52 50 48 45 43 40 37 34 30 27
 24 20 17 13 10  7  5  5  5  5  5  6  9 12 17 22 28 34 41 48 55 62 68 73
 78 82 85 87 88 89 89 88 86 84 82 79 76 73 71 68 66 64 62 61 60 59 59 58]",3,2022-01-20 10:22:12,2022-01-20 10:22:14
0,"[ -41  -45  -67  -67  -72  -84  -72  -53  -45  -38  -33  -36  -33  -33
  -36  -28  -16  -16  -16  -21  -43  -28   31   31  -33  -62  -26   12
   19    2    4   28   36   24   16    7   -2   14   38   41   36   36
   67  168  383  665  711  255 -277 -275  -16   16   -7   45   53   36
   48   62   69   77   89  103  110  115  127  137  139  142  159  180
  190  221  243  209  188  219  260  267  241  209  161   89   21  -21
  -33  -31  -26  -12  -12  -14    7   31   31   24   26   28   21   21
   31   48   50   43   48   50   41   43   55   60   53   48   48   50
   45   43   57]","[11 12 15 18 22 26 30 35 40 45 50 55 60 63 67 70 73 74 76 76 77 76 77 75
 74 73 71 69 68 65 64 62 60 58 57 55 54 52 52 50 50 48 48 47 47 46 46 45
 45 44 44 43 43 42 42 41 41 40 40 38 38 37 36 34 33 31 30 27 26 23 22 20
 20 20 21 23 27 30 36 41 47 54 61 66 73 77 82 85 87 88 89 88 86 84 81 78]",3,2022-01-20 10:22:14,2022-01-20 10:22:16
0,"[ 263  250  236  277  299  287  320  345  265  156   96   62   45   45
   53   57   24    7   72   98   -2  -55   19   60   31   24   24   16
   14    2  -14  -21  -12    7   28   50   45   14    7   28   41   36
   26   36   53   48   43   48   41   12   -9    9   69  110   89   62
   53   28   26   50   57   74  202  494  779  685  123 -301 -190  -24
  -53  -24   41   19   16   43   31   33   62   62   53   67   72   69
   91  123  130  125  147  183  209  229  248  263  270  277  284  250
  183  113   41  -12  -43  -55  -41  -14  -12  -24  -26  -38  -43  -33
  -31  -16   12]","[46 45 44 43 43 42 42 41 40 39 39 37 37 35 34 33 32 31 31 31 32 33 35 37
 41 44 48 52 56 60 64 67 70 72 75 76 77 77 77 77 76 75 74 73 71 70 68 66
 64 62 60 58 56 54 52 50 48 47 45 44 43 41 40 39 38 37 36 35 34 33 32 31
 29 28 27 26 25 24 23 21 20 19 19 18 18 18 19 21 24 27 31 36 42 48 54 60]",3,2022-01-20 10:22:16,2022-01-20 10:22:18
0,"[  69   84   72   65   82   98  106  130  152  154  166  197  221  229
  243  255  267  291  299  270  238  190   82   -7    0   24   19   21
   28   28   28   21    9    2   12   12   -7   -2   24   24   12   14
   38   57   48   38   45   65   77   55   26   36   60   84   96   67
   60   86   86   82   98   96   89  108  125  118  101   84   77   86
  101   94   79   77   67   55   69   86   84   77   74  103  258  545
  752  576   48 -253 -101   36    2   16   57   55   48   55   65   77
   72   79  113  120   98   94  101  110  123  137  149  164  185  207
  229  246  250]","[55 55 53 52 50 48 46 45 43 42 40 39 38 37 35 34 33 32 31 30 28 27 26 24
 23 21 20 19 18 18 19 20 23 26 30 36 41 48 54 61 67 73 79 84 88 91 93 94
 95 95 94 93 91 89 87 85 82 80 78 76 74 72 70 68 67 66 64 63 62 61 60 60
 58 58 56 56 54 53 51 50 48 46 43 41 38 35 32 29 26 23 19 17 13 11  8  6]",3,2022-01-20 10:22:18,2022-01-20 10:22:20
0,"[  31   28   38   38   31   33   38   36   38   43   41   36   38   43
   72  193  460  728  641  106 -323 -229  -50  -79  -53   26   21   21
   50   45   41   60   74   69   69   89   96   96  123  149  164  166
  166  180  205  226  258  294  296  279  267  209  110   38    0  -31
  -48  -45  -38  -41  -43  -38  -31  -33  -41  -38  -21   -7   19   50
   16  -28    0   26   16   21   50   62   60   62   50   38   50   57
   55   57   55   53   50   57   72   72   74   91   96   74   60   72
   89   89   91   84   65   62   86  127  178  180  135   96  103  164
  342  663  878]","[74 74 74 73 71 70 68 65 63 61 59 56 55 53 52 50 49 49 48 48 48 48 48 48
 48 48 47 47 46 45 44 43 42 40 39 37 35 33 32 30 29 27 26 25 23 22 21 20
 19 18 17 16 16 15 16 16 18 20 23 26 31 35 41 47 53 59 65 70 76 80 84 87
 90 91 93 94 94 94 93 92 91 90 89 87 85 84 82 80 79 77 75 74 72 70 68 66]",3,2022-01-20 10:22:20,2022-01-20 10:22:22
0,"[  19   -2   -4    7   21   24    4   12   36   14   12   62   69   45
   50   60   69   65   41   55   84   72   55   60   57   48   48   50
   38   28   24   19   21   26   31   36   45   50   45   43   50   50
   50   65   72   50   28   48   74   67   65   79   67   33   21   28
   24   19   19    9    4   19   21   33  161  451  716  615   77 -330
 -219  -26  -26  -16  -26 -101  -89  -14    4  -14   -4   19   12   -9
   -2   21   60  115  113   74  110  178  207  219  224  234  270  287
  260  241  221  149   77   53   24  -12  -21  -24  -33  -33  -24   -4
    7    7   14]","[24 23 21 20 18 17 14 13 10  8  6  5  5  5  5  5  5  6  8 11 15 19 24 29
 35 40 45 50 55 58 62 64 66 66 67 66 66 64 63 61 59 57 54 52 50 48 45 43
 42 40 39 38 36 36 35 35 34 34 33 34 33 33 32 31 30 30 28 28 26 25 24 23
 21 20 18 18 16 15 14 13 12 11 10 10  9  9  8  8  8  9 10 13 15 19 22 27]",3,2022-01-20 10:22:22,2022-01-20 10:22:24
0,"[  26   53   48   48   62   60   60   69   98  135  125  101  118  144
  149  164  197  234  270  301  284  226  221  253  219  147   86   33
   -9  -38  -45  -31  -19  -19  -19  -12   -4    0    0    2   14   31
   31   33   48   57   48   31   38   55   53   50   57   65   69   79
   89   94   86   77   77   94  113  113  101   96   98   91   74   50
   38   33   26   26   38   33   36   67   84   65   60   79   98  219
  492  731  624  113 -277 -188  -21  -48  -57  -16   -2   19   43   33
   26   38   45   48   53   65   79   94  106  113  120  144  161  168
  183  209  229]","[51 49 49 48 47 46 46 46 46 45 45 45 45 44 44 44 43 42 41 40 38 37 35 33
 31 29 27 25 23 21 20 19 18 17 18 18 20 22 25 29 34 39 45 51 58 63 69 74
 78 82 84 86 87 88 87 87 85 84 82 80 78 76 74 72 70 69 67 65 63 61 59 58
 56 54 52 50 48 46 44 42 40 38 36 34 32 30 28 26 24 22 20 19 17 16 15 14]",3,2022-01-20 10:22:24,2022-01-20 10:22:26
0,"[  50   48   55   60   53   36   14   -4    0   36   55   48   36   33
   36   31   31   53  113  291  598  789  528  -72 -340 -132   -4  -38
    4   43   19   24   48   57   65   69   69   82   96   98   96   98
  118  135  154  176  193  214  241  267  294  311  323  316  277  202
  127   74   28   -9  -36  -45  -45  -50  -41  -21  -14  -16  -16   -4
    7    7    7   12   19   31   43   45   50   60   67   65   72   82
   82   79   65   50   57   74   77   86  113  127  108   82   69   77
   91  108  113   91   86   96   74   53   74  108  144  306  622  825
  559  -24 -272]","[86 85 84 82 80 78 76 73 71 69 67 65 63 62 61 59 58 57 56 56 55 54 53 53
 52 51 50 50 49 48 46 45 44 43 42 40 39 38 36 35 33 32 30 28 26 24 22 21
 19 19 19 20 22 25 29 34 40 47 54 61 68 75 82 88 93 95 95 95 95 95 94 93
 92 90 88 85 83 80 78 75 73 71 69 67 65 64 62 61 60 59 58 57 56 55 55 54]",3,2022-01-20 10:22:26,2022-01-20 10:22:28
0,"[  43   33   14   33   26  -16  -21   12   26   26   28   31   38   50
   67   74   62   43   38   38   33   31   41   31   12   14   33   45
   62   77   72   72  127  313  583  687  383 -113 -263  -98  -31  -31
   28   53   16   -2    9   19   14   12   21   41   50   55   67   84
   96   91  106  147  171  188  205  202  212  246  255  241  207  154
   91   26  -21  -36  -21  -14  -21  -45  -65  -38    0  -14  -36  -28
  -26  -21   -9   -7   -4   12   19   14   14    4   -9   -9   -9    0
   41  123  212  149  -26  -50   14   -7  -12   53   82   86  115  123
   96   69   65]","[48 52 56 59 63 66 69 71 73 74 75 76 76 76 76 75 74 73 73 72 72 71 70 69
 68 67 66 64 63 61 60 58 57 54 54 52 51 49 48 46 45 43 42 39 38 35 34 30
 29 26 25 23 22 20 19 18 18 17 17 16 16 16 16 15 16 16 18 19 22 25 29 34
 40 45 52 58 66 71 78 82 88 91 94 95 95 94 94 92 91 88 86 84 81 78 76 74]",3,2022-01-20 10:22:28,2022-01-20 10:22:30
0,"[ -12  -14  -12   -2   -2   -2   21   41   33   31   55   77   65   55
   57   57   65   69   74  106  127  137  110   50   60  110  101   86
  118  135  113   84   94   86   50   62   86   48   19   65  101   67
   33   31   48   89  185  427  748  776  301 -188 -178   19   33   16
   50   55   33   28   50   72   69   62   60   62  103  154  132   96
  110  125  139  171  183  190  217  238  236  221  202  183  156  101
   26  -31  -60  -65  -69  -79  -91  -96  -91 -113 -123  -77  -43  -79
 -106  -67  -38  -55  -60  -41  -31  -36  -41  -31  -19  -28  -16   26
   21  -16  -19]","[18 16 14 13 11 10  9  9 10 12 15 19 24 31 37 46 53 62 70 78 84 90 95 95
 95 95 95 94 93 92 89 87 84 82 79 76 73 71 68 66 64 62 60 59 58 58 57 56
 55 55 54 54 53 53 51 50 48 46 44 41 38 35 31 27 23 20 16 13  9  7  5  5
  5  5  5  5  5  5  5  7  9 12 15 20 24 30 36 42 48 54 59 64 69 72 76 78]",3,2022-01-20 10:22:30,2022-01-20 10:22:32
0,"[  -7   45   82   55   33   33   24   55  110  103   82  113  149  161
  147  118  125  183  238  263  282  299  304  291  253  183  108   55
   21    0   -2   -2  -14  -14    2    0   -9    0    0   -7    2   19
   43   69   45    2   12   36   38   45   53   50   55   72   79   69
   62   77   96   91   77   86  103  108  101   98   94   96  103  101
   96   94   82   79   91   98  101  139  248  475  757  810  388 -152
 -209   16   55   16   41   48   57  101  125  110   72   60  103  147
  149  147  156  152  144  164  190  195  197  231  291  340  340  306
  282  279  258]","[40 39 38 37 35 34 32 31 29 28 26 25 23 22 21 20 19 18 18 17 17 18 18 20
 21 24 28 32 37 43 49 55 61 67 72 77 81 85 87 89 90 91 91 90 89 88 86 85
 83 81 79 78 76 75 73 73 71 71 69 69 68 67 66 65 63 62 61 59 57 56 53 52
 49 47 44 42 40 37 35 33 30 28 25 23 21 19 17 15 14 13 13 14 16 18 21 25]",3,2022-01-20 10:22:32,2022-01-20 10:22:34
0,"[  21   38   43   45   74   96   94  106  132  135  132  142  159  178
  195  205  205  197  202  202  176  125   65   16  -26  -62  -67  -65
  -82  -86  -69  -55  -48  -65  -79  -67  -55  -67  -74  -50  -12   -4
  -16  -16  -24  -28  -21  -12    0   14   14   12    2   -9    0   16
   19   26   26    9    9   26   36   28   19   16   19   16   19   26
   31   33   41   55   60   60   69   94  190  434  709  675  178 -289
 -243  -16    2   -4   60   74   62   84   84   60   69   96  103  113
  130  139  149  161  173  183  193  212  236  260  279  308  316  296
  296  291  248]","[67 67 66 66 65 65 64 64 63 62 62 60 59 57 56 54 51 48 45 42 39 35 32 28
 25 22 18 16 13 11 10  9  8  9 10 13 16 20 25 31 37 44 51 57 64 70 75 80
 84 87 89 91 92 92 92 92 91 90 89 87 86 85 83 82 81 80 80 79 78 77 77 76
 75 75 74 72 71 70 68 67 65 64 62 60 59 57 56 54 53 52 50 49 48 46 45 44]",3,2022-01-20 10:22:34,2022-01-20 10:22:36
0,"[  91   86   72   77   77   72   98  236  538  830  723  127 -301 -156
   41   19   53  118   96   77   89   91  106  130  130  118  132  154
  147  144  171  190  190  195  212  250  279  267  265  299  320  306
  250  161   84   50   26    2    0  -12  -53  -60  -26    4   31   33
    2  -16  -14  -21  -14    2   -9  -19    4   26   28   19  -19  -55
  -43  -33  -36  -26  -12  -16  -31  -36  -24   -4    7   12   14   16
   12   12   21   24   19    9   -7  -28  -28    9   21  -26  -53  -28
   -2   36   57   57  173  475  748  624   62 -330 -190    0  -28  -19
   33   28   38]","[91 90 88 87 85 84 82 81 80 79 78 78 77 77 76 76 75 75 73 73 71 70 68 67
 64 62 59 57 53 51 47 45 41 38 35 32 29 27 24 22 19 17 15 13 11 11 10 11
 11 14 16 21 25 32 37 45 51 59 66 73 78 83 87 91 93 95 95 95 93 93 91 90
 88 86 84 83 81 80 78 78 76 76 75 74 73 73 72 71 70 70 69 68 67 66 65 64]",3,2022-01-20 10:22:36,2022-01-20 10:22:38
0,"[ -26    0   14   -7  -19  -12  -19  -14   24   43   26   16   24   31
   55   69   43   38   50   45   57   86   96   94   98   89   72   69
   77   86   91   91   91   94  103  113  106   98  144  284  540  805
  762  258 -207 -193  -31    9   50   98  103  115  130  135  142  149
  159  173  180  154  132  159  202  219  229  253  282  289  301  340
  359  349  352  359  340  282  212  154  108   57   24   21   16   16
   33   43   26   16   28   33   21   14   24   36   36   41   60   50
   33   45   33   -9  -41  -19   36   50   16    0    7   19   28   36
   50   69   72]","[ 5  6  7 10 13 17 21 26 31 37 43 49 54 60 64 68 71 74 75 77 76 77 75 75
 72 71 69 68 65 64 62 61 60 60 59 59 58 58 58 58 58 58 57 57 56 55 54 53
 52 50 48 46 44 42 40 38 36 33 31 29 27 25 23 21 19 17 15 13 12 10  9  9
  9 11 13 16 20 25 30 36 42 48 55 60 66 70 75 78 81 83 85 86 86 86 85 84]",3,2022-01-20 10:22:38,2022-01-20 10:22:40
0,"[ -16  -21  -28  -48  -67  -67  -53  -38  -31  -36  -28  -12  -14  -24
   -9   16   28   14   -4   -4   -2  -14  -19  -12  -24  -36  -28  -28
  -38  -38  -28  -19  -21  -24  -24  -28  -31  -21  -14  -16  -14  -12
  -21  -24  -16   -9    0   14   14    2   -4   -4   -4    7   31   67
  159  369  615  663  291 -243 -357 -118  -12  -19   19   28    0   19
   65   74   65   62   57   62   72   77   86  101  118  123  132  161
  195  214  229  243  255  263  265  248  217  180  115   36  -14  -41
  -57  -50  -14   16    0  -41  -33  -12  -12  -14   -2    2    2   19
   38   45   43]","[23 20 18 16 14 12 10  8  7  5  5  5  5  5  5  5  5  6  8 10 13 17 22 27
 32 38 43 48 53 57 61 64 66 67 69 69 70 69 69 68 67 66 65 64 63 61 60 59
 58 57 56 54 54 52 51 50 49 48 47 46 45 44 43 42 41 40 39 38 37 36 35 34
 33 32 31 30 29 28 27 26 25 23 22 20 18 16 15 13 13 13 14 15 18 22 26 32]",3,2022-01-20 10:22:40,2022-01-20 10:22:42
0,"[  89   55   48   45   48   79  115  106   82   94  137  171  176  166
  166  183  209  224  246  289  318  304  291  294  277  234  185  135
   84   65   55   33    7   -7   21   62   55   45   50   21    7   55
  101   86   48   28   38   55   69   79   74   57   45   50   67   60
   24   -2   14   53   65   43   33   43   48   48   43   36   38   48
   53   45   36   33   41   53   69   74   82  139  320  622  801  499
  -96 -289  -69    0  -55  -16    4  -19  -12   14   26   38   45   43
   55   65   69   69   69   86  123  142  135  142  164  183  195  205
  209  205  185]","[55 55 55 55 54 54 52 52 50 49 46 45 42 41 38 36 34 32 30 28 26 25 23 22
 21 21 20 21 21 23 25 28 32 36 41 46 51 57 61 66 70 74 77 80 81 83 83 83
 83 82 81 81 79 79 77 77 76 76 75 75 74 74 73 73 72 72 71 70 68 67 65 63
 61 59 56 54 51 49 47 45 42 41 39 37 35 34 32 31 29 29 27 26 24 23 22 22]",3,2022-01-20 10:22:42,2022-01-20 10:22:44
0,"[ 284  581  711  400 -152 -330 -113  -24  -67  -19   21    9   12   16
    4   12   26   33   48   72   74   67   86  118  123  123  159  200
  197  205  241  250  241  241  229  183  120   67   33    4  -21  -41
  -50  -45  -41  -53  -53  -28  -21  -28  -12   19   41   36   16   16
   36   38    9  -16   -9   19   33   38   48   53   50   50   53   50
   57   74   84   82   82   82   74   72   77   65   43   43   57   69
   69   74   96  125  219  468  767  801  357 -149 -156   67   98   91
  142  159  168  147   82   77  123  135  135  152  164  156  137  127
  156  185  195]","[66 65 63 62 61 60 59 58 58 58 57 57 56 56 55 55 53 52 51 50 48 46 44 43
 41 40 38 36 34 33 31 30 29 28 27 28 28 30 32 36 39 44 50 56 62 68 75 80
 86 90 94 95 95 95 95 95 94 93 92 90 89 88 86 85 84 83 82 82 81 81 81 81
 81 80 80 80 79 78 77 76 74 72 70 67 64 62 59 56 52 49 46 43 39 37 33 31]",3,2022-01-20 10:22:44,2022-01-20 10:22:46
0,"[  89  108  173  361  658  815  528  -45 -265  -65   31   -7   24   41
   -7    2   57   84   86   84   86  103  123  110   86   91  118  142
  171  195  205  209  202  212  253  277  267  255  221  154   91   50
   21    0  -19  -28  -19  -12   -7   -2  -21  -43  -38  -19    7   14
  -19  -60  -50   -9   -4  -12   -2   -2  -14  -16  -14  -14    0    9
    0  -14  -16  -24  -26   -2    7  -12  -16   -2    4    2    2   19
   38   26   16   28   31   12   14   31   31   28   43   41   38   57
   82  147  352  632  704  337 -183 -277  -45   31    4   50   77   67
  101  125   96]","[88 86 84 81 79 77 74 72 70 68 67 65 63 61 60 58 56 55 53 51 49 47 45 43
 40 38 36 34 32 30 28 26 25 23 22 21 21 20 19 19 18 18 17 17 17 17 17 17
 18 19 21 23 26 29 33 37 41 44 48 52 55 58 60 62 64 65 66 67 67 67 67 66
 65 64 63 62 60 59 58 56 55 54 54 53 52 52 52 52 52 52 52 52 52 52 52 52]",3,2022-01-20 10:22:46,2022-01-20 10:22:48
0,"[ -33  -33  -24   -7    4    0   14   33   31   26   26   28   48   57
   43   19   21   50   62   48   43   48   48   50   62   67   79   94
   98   91   79   69   72   89   86   74   77   69   57   69   89  106
  207  475  764  692  120 -335 -205   14    2   26  106  101   89  118
  127  127  144  154  149  154  166  173  178  190  205  205  209  241
  270  289  311  340  364  381  381  345  265  190  144   96   57   45
   38   28   21   19   19   21    9   -4  -19  -19    9   38   38   21
   12    9   -4    0    9    7    9   21   33   38   31   28   38   45
   50   53   45]","[42 45 48 51 54 57 60 62 65 66 68 69 70 71 71 71 71 71 70 69 69 68 67 66
 65 64 64 62 61 60 59 58 57 56 55 54 53 52 51 50 50 49 48 48 48 47 47 47
 46 46 45 43 42 40 37 35 32 29 26 24 21 18 16 15 14 13 13 14 16 19 22 25
 29 33 38 42 46 50 53 56 58 60 62 63 64 64 64 64 63 62 61 59 57 55 53 51]",3,2022-01-20 10:22:48,2022-01-20 10:22:50
0,"[ 118   62   26   -4  -14  -24  -43  -53  -55  -48  -19   14   19    2
   -4   -2   -4   -9  -14   -9   -7  -16  -14   -9  -14  -24  -24  -19
   -9   -2   -2   -2    4   12    7   -4  -12  -12   -4   -2    0    9
    9  -12  -12   19   33   31   28   19    7    7    9    9    4   16
   41   43   36   53   57   67  149  357  624  716  371 -200 -349  -89
   21  -24   -2   21   24   55   60   45   53   62   57   67   91  106
  108  101  101  118  142  183  231  258  253  255  277  279  265  263
  260  217  139   69   38   16    0   -2   -4   -7    7    9    0    7
   24   24   24]","[17 16 14 13 11 10  8  7  6  5  5  5  5  5  5  5  5  5  5  5  6  8 10 12
 15 19 22 26 30 33 37 41 44 47 50 52 55 56 58 59 59 59 59 58 58 56 55 53
 52 50 49 47 46 44 43 42 41 40 40 39 38 38 37 36 36 35 35 34 33 32 31 30
 29 28 27 26 25 23 22 21 20 19 18 17 16 15 14 13 13 13 14 15 17 21 25 29]",3,2022-01-20 10:22:50,2022-01-20 10:22:52
0,"[  -2   50   62   36   55   86  103  106  108  115  115  101  113  139
  149  154  166  173  185  214  246  272  287  296  318  335  318  270
  209  149   94   57   48   43   21   21   41   24  -14   -7   26   43
   53   57   53   45   43   45   45   48   57   65   53   31   26   41
   53   60   45   31   33   43   43   31   28   45   57   50   43   50
   43   36   48   60   48   33   28   14   12   43   72   91  217  513
  779  653  106 -284 -168   -4  -43  -38    9  -16  -31    4   19   14
   19   14    4   16   24   14   21   41   65   86  101  120  142  156
  168  180  188]","[46 46 46 45 45 44 43 42 40 39 37 36 34 33 31 30 30 30 30 31 31 32 32 33
 32 32 31 30 29 29 29 30 31 33 34 37 39 42 45 48 50 53 54 56 56 57 56 57
 56 55 54 53 51 50 49 48 46 45 43 42 40 39 37 36 34 33 31 30 28 27 25 23
 22 21 21 21 21 22 23 24 25 26 27 28 29 29 29 29 29 29 28 28 27 27 27 27]",3,2022-01-20 10:22:52,2022-01-20 10:22:54
0,"[ 789  576  -24 -352 -176  -24  -55  -28   12   -7   -4   12    4   14
   41   50   57   74   84   96  120  135  135  144  168  202  250  277
  258  243  267  294  299  265  188  101   50   19   -9  -21  -24  -28
  -21    4   31   24   -7  -24  -26  -26   -9   12   14    7    9   14
   19   26   33   33   43   50   48   55   89  115   89   16   -4   43
   74   82   89   79   60   45   45   55   57   57   67   74   84  103
  200  463  772  767  272 -224 -190   33   31    4   67   89   82   96
  118  125  120  118  125  132  137  154  178  178  164  168  188  214
  260  287  277]","[56 54 53 52 50 49 48 46 44 41 38 35 31 27 24 21 18 15 13 12 11 10 10 10
 10 10 10 11 11 12 12 14 16 19 22 26 31 37 43 49 55 62 68 74 79 83 87 90
 93 95 95 95 94 94 93 92 92 91 91 91 90 90 89 87 85 82 79 75 72 68 64 61
 57 54 52 49 47 45 44 43 42 40 39 38 37 36 34 33 31 29 27 26 24 22 21 20]",3,2022-01-20 10:22:54,2022-01-20 10:22:56
0,"[ 451  -45 -152   31   74   33   60   86   84   91   91   82   67   77
   94   79   67   98  123  118  120  152  168  142  130  183  231  234
  236  250  248  231  197  137   72   45   26  -14  -19   21   12   -2
   26   24    2   24   36   14    2   -7  -12    4    9  -14  -14    2
    2   -4   -4   -4  -12  -14  -12    0    7   -9  -28  -26  -28  -31
   -7    7   -4   -9   -7  -12   -9   -2   -4   -2    9    9    2    4
   14   21   26   31   33   24   28   69  180  419  670  620  135 -311
 -255  -38  -31  -31   48   65   48   62   65   55   69   82   89  103
  113  110  120]","[88 89 90 91 91 91 91 90 89 87 84 82 79 76 72 69 65 61 57 53 49 45 41 38
 34 31 27 24 21 19 16 14 11  9  7  6  5  5  5  5  7 10 14 19 24 31 38 45
 52 59 66 71 76 79 82 83 84 84 83 81 80 78 76 74 72 70 69 67 66 65 64 63
 62 61 60 59 58 57 56 55 53 52 51 50 49 48 47 46 45 45 44 43 42 41 40 40]",3,2022-01-20 10:22:56,2022-01-20 10:22:58
0,"[  36   38   53   36   31   45   45   43   57   72   82   84   67   62
   82   91   91  101  110  127  209  431  735  837  439 -154 -253   -7
   28  -31   14   57   65   72   60   33   16   38   89  108   98  108
  127  144  161  173  185  214  238  258  279  296  301  304  291  258
  207  135   67   33   21   21   16   -9  -26   -7   14   16   16   43
   77   60   12    2   36   57   67   86   82   53   57   77   84  110
  115   57   -2   19   74   74   48   48   45   28   -2  -28  -14   19
   21   21   43   55   65   79   65   36   36   45   38   26    9    4
   24   24   24]","[91 93 95 95 95 95 94 94 93 92 91 90 89 89 88 88 87 88 87 87 87 87 87 87
 87 87 87 87 86 85 84 83 81 80 77 75 72 69 66 64 60 58 55 53 50 48 46 45
 43 42 41 40 39 39 39 39 39 41 42 45 48 51 55 60 64 69 73 77 81 84 86 88
 89 90 90 90 89 89 87 86 85 84 82 81 79 78 76 75 74 73 71 70 68 66 64 62]",3,2022-01-20 10:22:58,2022-01-20 10:23:00
0,"[ -19  -16  -19   -7   -2   -4   19   45   38   31   45   45   36   43
   53   33    9    9   26   28   26   26   24   21   21   24   21   21
   33   36   19    4    7   12    7   -2   -4   -2   12   21   21   36
   50   48   48   55  149  417  723  685  152 -328 -243   -2   14   21
   77   65   43   62   67   65   77   89  101  108  106  110  127  139
  156  180  190  202  238  270  279  287  294  291  282  260  219  164
   96   14  -53  -65  -50  -55  -48  -21   -9   -9   -9   -9   -2    4
    4   14   36   55   55   38   28   45   67   69   77   91   77   38
   26   50   69]","[12 10  8  6  5  5  5  5  5  6  9 11 15 19 24 29 35 40 45 49 54 57 60 62
 64 64 65 64 64 63 62 60 60 58 57 55 55 53 52 51 50 48 48 47 47 45 45 44
 44 43 43 42 42 41 40 39 39 37 37 36 36 35 35 33 33 32 31 30 30 28 27 25
 24 22 21 19 19 19 20 21 24 26 31 35 41 46 52 58 64 69 74 77 81 83 85 86]",3,2022-01-20 10:23:00,2022-01-20 10:23:02
0,"[ 291  306  304  275  221  147   77   33    7  -12    4   26   14   -4
   -7    4   19   36   41   38   33   38   43   60   86   91   74   53
   41   41   36   38   55   57   38   28   36   38   24    9   14   33
   48   48   28   -2    2   26   19   12   24   26   26   36   48   50
   48   50   62  101  248  530  748  562    0 -313 -149    2  -12    2
   36   31   24   31   31   28   36   33   28   41   55   65   84  113
  130  139  152  173  197  212  224  236  236  229  214  178  125   65
    7  -36  -53  -55  -62  -69  -65  -65  -60  -50  -48  -53  -48  -33
  -24  -19  -14]","[42 40 37 36 33 31 27 26 22 21 18 17 14 14 13 14 14 17 19 24 28 35 40 48
 55 63 69 77 82 87 91 94 95 95 94 93 91 89 86 84 81 78 74 72 69 66 64 62
 60 59 57 57 56 55 54 53 52 52 50 49 47 45 43 41 38 36 32 30 26 24 21 18
 15 13 11  9  6  5  5  5  5  5  5  5  5  5  5  5  6  8 11 14 18 24 29 35]",3,2022-01-20 10:23:02,2022-01-20 10:23:04
0,"[ 106  113  110  132  188  212  212  234  265  270  263  272  265  197
   94   24    4   -9  -24  -16  -16  -31  -43  -21   24   48   33   26
   31   41   45   41   26   19   28   33   26   16   24   43   57   53
   31   16   12   12   45  101  106   79   62   55   48   55   65   60
   43   41   57   67   74   84   82   89  137  299  603  834  622   31
 -258  -67   50    4   36   77   74   94  113  101   94  110  139  159
  156  164  180  173  168  188  214  231  243  253  272  308  342  342
  308  265  224  176  113   55   19   -2   -9   -7  -14  -14   -9   -9
   -4   -2  -14]","[47 45 45 43 43 41 40 38 37 35 34 31 30 27 26 24 23 21 20 18 18 18 19 20
 23 25 30 34 41 47 54 61 68 75 82 88 94 95 95 95 95 95 95 94 94 92 91 89
 87 85 83 80 79 76 75 73 72 71 70 69 69 68 68 67 66 66 65 63 62 61 59 58
 56 54 52 50 48 46 44 42 40 38 37 35 33 32 31 30 29 29 30 31 33 35 38 42]",3,2022-01-20 10:23:04,2022-01-20 10:23:06
0,"[  57   77   62   57   69   62   62   86   91   86  110  127  120  120
  118  106  130  164  173  183  202  226  253  265  267  265  241  185
  127   84   41    2  -12  -12  -28  -38  -24  -24  -38  -31  -14  -16
  -24  -19   -9  -12   -2   14    4   -9   -7  -12  -24  -28   -4   12
  -12  -21    0    0  -16   -9   -2   -4    9   16   -4  -12   14   24
    9    9   21   31   28   14    7   12   19   24   19   12   19   28
   16   16   41   53   60  127  349  682  793  374 -226 -330  -72    9
   -7   45   62   36   26   19   19   53   84   94   89   89   96   96
  115  149  161]","[66 65 63 62 61 60 59 59 57 57 56 55 54 53 52 52 52 51 51 51 51 51 50 50
 49 48 47 45 43 41 38 35 32 28 26 22 20 17 16 16 17 19 23 27 33 39 47 54
 62 68 75 80 86 89 92 94 95 95 94 93 91 90 87 85 83 81 79 78 76 75 74 73
 73 73 72 72 72 72 72 72 72 71 71 70 69 68 66 65 63 60 58 55 52 49 47 44]",3,2022-01-20 10:23:06,2022-01-20 10:23:08
0,"[  36   57   74   67   57   65   65   50   50   67   79   86   91   94
   96  108  185  410  719  796  388 -159 -236  -12   31    9   67   79
   45   53   86   96   91  101  101   82   84  127  159  137  103  106
  132  159  185  214  241  248  248  255  260  246  217  161   84   33
    7  -28  -53  -60  -62  -45  -19  -31  -48  -31  -21  -19   -2    9
   14   24   28    9   -7    4   24   36   48   60   53   24   24   45
   50   62   79   72   72   74   53   48   69   77   62   55   65   74
   69   82  103  108   89   65   33   26   36   36   33   43   45   31
   33   50   48]","[57 60 61 63 64 66 67 68 69 71 72 74 76 79 81 84 87 89 92 94 95 95 95 95
 95 95 94 93 92 90 88 86 84 81 78 74 71 67 64 60 57 53 50 47 44 41 39 36
 35 32 31 29 28 26 25 23 22 21 20 19 20 20 22 23 26 29 33 37 42 46 51 55
 59 62 64 66 67 68 68 67 66 65 63 61 59 57 55 53 52 50 49 47 47 46 46 46]",3,2022-01-20 10:23:08,2022-01-20 10:23:10
0,"[ 180  120   65   28   12    2   -9  -21  -28  -19  -12  -19  -16   -7
   -7    0   21   38   41   43   36   33   33   33   41   43   36   38
   41   31   36   48   43   41   57   57   45   38   48   67   62   45
   50   72   74   62   67   69   65   55   43   36   41   36   36   48
   41   14    0    4   31   94  267  579  791  545  -74 -364 -142   12
  -26   -4   28   21   33   53   57   62   62   60   67   69   74   79
   89  103  110  113  130  156  183  209  238  253  260  275  275  236
  176  118   67   19   -4  -12  -19  -31  -38  -33  -28  -28  -24   -2
    9    2    7]","[29 27 24 22 20 18 16 14 11 10  8  7  5  5  5  5  5  5  5  6  8 10 13 17
 20 25 29 34 39 44 48 52 55 58 60 62 63 64 63 63 62 60 59 57 55 53 51 50
 48 47 45 44 43 43 42 41 41 41 41 41 40 41 40 40 40 39 39 38 37 37 36 35
 34 33 32 31 29 29 28 27 26 25 24 24 23 23 23 23 24 25 27 29 32 35 39 43]",3,2022-01-20 10:23:10,2022-01-20 10:23:12
0,"[  50   65   45   45   69   86  101  115  120  123  139  159  168  166
  171  197  214  202  197  236  279  275  243  207  159  101   53   24
   19   12   14   26  -31  -91  -50   -2  -16  -14   21   33   33   45
   60   72   84   89   84   67   65   65   65   79  101  103   96   94
   89   72   72   84   94   94   65   33   41   60   67   82  106   74
    0   -9   38   50   41   62   82   82   53   14   24   96  250  523
  731  554   24 -275 -125   14   -2   24   53   43   45   55   55   72
   82   67   53   65   82   94  106  113  110  106  115  144  171  188
  197  193  190]","[48 47 46 45 44 43 42 41 41 40 39 38 37 36 35 33 32 31 30 29 28 27 26 25
 24 23 22 21 20 19 19 18 19 18 20 21 23 25 29 32 37 41 45 50 54 58 61 64
 66 68 69 69 69 68 67 66 65 63 61 59 58 56 55 53 52 50 49 48 47 46 45 44
 43 42 41 40 39 38 37 36 35 34 33 31 30 28 27 25 24 21 20 17 15 13 11  9]",3,2022-01-20 10:23:12,2022-01-20 10:23:14
0,"[  86   84   86   89   91   82   74   74   67   65   67   79  101  137
  284  603  854  673   96 -248 -103   48   33   74  125  103   89  113
  115  103  106  115  123  113  101  113  137  147  152  173  205  217
  231  263  296  316  313  311  311  272  197  130   82   36    2   -7
    4   19   14   -2   -4    0    7    9    4    9   24   24   21   28
   38   48   50   50   60   86  103   98   96  110  110   94   84   96
  101   94   86   84   86   84   89   94   69   48   69   96   98  103
  118  135  212  465  801  839  354 -202 -231   19   86   74   69   45
   62   82   94]","[59 58 57 56 55 53 53 52 51 50 49 48 48 47 47 46 45 44 43 41 40 39 38 36
 35 33 32 31 30 29 28 28 28 27 28 28 29 29 30 31 33 35 38 41 45 49 53 58
 64 69 74 79 84 88 92 95 95 95 95 94 94 93 91 90 88 85 83 81 79 77 75 73
 71 69 68 66 65 63 62 60 59 58 57 56 55 54 54 53 52 51 51 50 49 48 47 46]",3,2022-01-20 10:23:14,2022-01-20 10:23:16
0,"[  50   55   72   84   79   79   91  101  156  381  709  849  535  -31
 -226  -21   77   53   84   86   45   50   79   77   60   60   65   65
   77   96  101  106  118  127  142  161  183  207  234  248  260  265
  260  238  193  135   69   14  -14  -33  -53  -50  -41  -50  -57  -45
  -33  -33  -26   -9    7    9    0   -9  -16  -24   -9    2  -12  -28
  -26  -16   -7  -12  -16  -12   -9  -12   -4   -4  -16  -21  -19  -19
  -16  -19  -19   -9   -7   -7    9   38   43   19   -4   -2   14   33
   65   67    7  -45  -26   21   36   50   89  154  328  617  743  410
 -156 -313  -72]","[93 91 90 89 87 86 84 83 81 80 79 78 76 76 74 74 73 72 71 70 68 67 65 64
 61 59 57 54 52 49 46 44 42 39 37 35 33 31 30 28 27 25 24 23 22 21 20 19
 19 18 18 19 20 21 23 26 30 34 38 43 49 54 59 64 69 73 77 81 83 86 87 89
 89 89 89 88 87 86 84 82 80 79 77 75 73 71 69 67 65 64 62 60 59 58 57 56]",3,2022-01-20 10:23:16,2022-01-20 10:23:18
0,"[ -28  -43  -57  -57  -48  -55  -62  -62  -55  -48  -43  -33  -33  -45
  -36  -19  -21  -19  -19  -24   -4   24   28   14    2    0    9   16
   16   21   28   21   16   19   16   26   43   38   28   28   33   43
   65   77   69   65   62   53   45   43   36   41   43   43   48   43
   43   57   72  103  246  545  791  624   43 -318 -154   14  -16   14
   79   57   38   69   82   82  110  142  144  139  142  154  159  156
  176  209  226  236  253  265  284  313  332  345  330  267  200  156
  106   67   36  -21  -55  -31  -16  -16    0    9   -9  -36  -43  -26
    0   21   41]","[29 27 26 25 24 23 23 22 21 20 20 19 19 20 20 21 23 26 29 33 38 42 47 52
 58 62 67 70 74 76 78 79 80 80 80 79 79 77 76 74 73 70 69 67 66 64 63 61
 61 59 59 58 57 56 56 54 54 52 51 49 48 46 45 43 42 40 40 38 37 36 35 34
 33 32 31 30 29 27 26 24 24 22 22 20 21 21 23 25 28 31 36 39 45 48 54 57]",3,2022-01-20 10:23:18,2022-01-20 10:23:20
0,"[ 132  144  159  159  139  147  180  200  205  224  246  265  272  255
  229  185  123   69   21  -41  -89 -103 -101  -86  -60  -45  -48  -43
  -41  -48  -48  -24   -2  -14  -24  -14  -26  -31   -4   14   21   26
   12    9   26   28   14   12    9   12   31   36   12   -4    4   14
   16   24   41   45   38   41   62   69   50   28   14    9   24   36
   31   31   38   43   31   31   65  156  386  685  748  323 -243 -313
  -38   41    9   28    2  -26    7   36   33   31   43   45   62  101
  108  103  110   98   96  118  135  166  217  246  253  255  253  248
  224  190  149]","[66 65 63 61 59 57 54 51 48 45 42 38 35 31 27 24 20 17 14 11  9  6  5  5
  5  5  5  5  5  6  7  9 12 15 18 23 28 33 39 45 52 58 64 69 75 79 83 85
 88 89 89 89 88 87 85 83 81 78 76 73 71 68 66 64 62 60 59 57 56 55 54 52
 52 50 49 47 46 44 42 40 38 35 33 31 29 26 24 21 20 17 15 13 11  9  8  6]",3,2022-01-20 10:23:20,2022-01-20 10:23:22
0,"[  36   48   28    7    9   19   14    7   19   24   16   21   33   38
   41   72  164  374  658  767  417 -168 -330  -89    0  -28   45   89
   45   28   41   41   62   96   94   69   50   48   67  103  154  193
  209  229  260  284  294  301  301  291  282  265  221  156  103   79
   28  -67  -84  -33  -28  -41  -26  -16  -21  -24  -16    0   26   31
   19   26   28   19   38   77   98   94   77   69   82   89   84   84
   91  101   98   79   74   94   84   82  120  106   48   57   98   94
   79   74   72   84   94   86  101  115  101  137  284  528  755  692
  207 -219 -147]","[65 62 59 57 54 52 49 48 46 45 45 44 44 44 43 43 43 42 42 41 40 39 37 36
 34 33 31 29 27 26 24 23 22 21 19 18 17 16 14 13 12 11 10 10  9  9 10 11
 13 15 19 23 27 32 38 43 49 54 59 64 68 71 74 76 78 79 80 80 80 80 79 78
 78 76 75 73 71 69 67 65 63 60 58 55 52 49 47 43 41 38 35 31 29 25 22 18]",3,2022-01-20 10:23:22,2022-01-20 10:23:24
0,"[  38   38   31   31   38   38   43   57   65   53   31   24   33   38
   26   24   43   57   62   55   38   43   69  106  260  554  740  516
  -21 -275  -86   55   14   16   62   74   89  106   79   45   67  110
  125  125  132  144  156  164  168  178  193  212  236  248  277  316
  320  296  267  234  193  152   96   28   -7   -9  -26  -38  -31  -26
   -9   16    4  -16   -2   19    2  -19    9   57   43    4    9   16
    2   -2    0   -4   -4    2    0   -2    7   26   38   36   38   57
   60   55   67   74   69   62   53   43   48   65   67   50   45   57
   69   98  212]","[82 83 85 86 87 87 87 85 84 82 81 79 77 74 72 70 68 66 65 63 62 60 59 58
 57 55 54 53 52 50 49 47 45 43 42 39 37 35 33 30 29 26 24 22 20 18 17 14
 13 11 10  8  7  5  5  5  5  6  8 10 13 16 21 26 32 37 43 48 54 58 63 67
 71 73 75 76 76 76 75 74 73 71 70 69 68 67 66 65 65 64 63 62 62 61 60 59]",3,2022-01-20 10:23:24,2022-01-20 10:23:26
0,"[  -2   -4   12    9    0    2    7    0    4   14   24   31   -2  -31
    0   19    4    4    9   12   21   26   31   36   26    9    7    7
    0    2    2    2   12   26   31   55  185  453  711  617   74 -354
 -248  -45  -50  -31   26   12    7   28   36   48   67   57   41   62
   89   82   67   79  106  123  142  161  176  197  219  234  241  241
  236  209  139   60    9  -21  -50  -62  -53  -48  -55  -53  -43  -41
  -41  -36  -26  -24  -24  -12   -2   -2    0    4   -7   -9    7   21
   24    2  -14   16   60   48   12   14   33   28   19   28   38   31
   14    9   24]","[30 33 38 41 47 51 57 61 67 70 74 77 80 81 83 82 83 82 81 79 78 75 74 70
 68 65 63 59 56 52 50 46 44 41 41 39 39 39 40 40 41 42 44 44 46 46 47 46
 47 45 45 43 42 40 39 36 36 33 32 30 30 27 27 25 25 23 23 21 21 20 21 21
 23 25 28 31 36 41 47 51 58 63 69 73 78 81 84 86 88 88 89 88 89 87 87 86]",3,2022-01-20 10:23:26,2022-01-20 10:23:28
0,"[ 253  202  135   65   31   31   38   31    2  -38  -45  -12    7  -12
  -19    4   26   31   24   19   24   36   43   48   62   65   53   60
   74   72   77   98  106   94   96  106  106  113   98   82   96  103
   79   79  115  139  127   91   77   94  132  289  591  764  513   -4
 -217  -53   21  -31   -7   33   36   45   60   57   48   41   50   60
   50   43   67   89   91  115  144  154  164  190  219  236  248  258
